08:06:26.998,0,-3,0,-1,-1,-1,-1,0,
08:06:27.004,0,-1,-1,0,-1,0,-1,0,
08:06:27.004,-1,-1,0,-1,-1,0,-1,1,
08:06:27.005,-1,-3,-1,1,1,-2,-1,-2,
08:06:27.005,-1,-3,-2,-1,0,0,-2,-2,
08:06:27.005,0,-1,-1,-1,0,-1,-1,-3,
08:06:27.006,-1,-1,0,-2,-3,-2,-3,-3,
08:06:27.006,0,-3,-1,-1,-3,-2,-1,-2,
08:06:27.011,-3,-3,-2,-1,-1,-3,-3,-3,
08:06:27.012,-1,-3,-3,-2,-1,-2,-2,-1,
08:06:27.018,-2,-2,-2,-2,0,-2,-1,-2,
08:06:27.020,-3,-3,-3,-1,0,-2,-2,0,
08:06:27.026,-1,-3,-1,0,-2,0,-1,-1,
08:06:27.027,-3,-1,-3,0,-2,-1,-3,-1,
08:06:27.040,-1,-1,-1,0,-2,-1,-2,0,
08:06:27.040,-2,-2,-2,-1,-3,-2,-3,-1,
08:06:27.051,-1,-1,2,-1,-2,0,0,-1,
08:06:27.052,-1,0,0,0,-1,0,0,-2,
08:06:27.065,1,-1,-3,0,-1,0,0,-1,
08:06:27.065,-1,-2,-2,0,0,0,-1,-1,
08:06:27.071,0,-1,-1,0,0,-2,-1,-1,
08:06:27.072,0,0,-1,-3,-2,-1,-1,-1,
08:06:27.084,0,0,0,0,-1,-2,-2,0,
08:06:27.085,-1,-2,-4,-3,-1,0,-1,-1,
08:06:27.126,-2,1,1,-1,-3,-2,-1,0,
08:06:27.127,0,-1,-1,-2,-1,0,-1,-1,
08:06:27.127,-1,-3,-1,-2,-1,-2,-2,0,
08:06:27.128,-1,1,-3,0,-1,-2,-2,-1,
08:06:27.131,-1,-2,-1,-1,2,-1,-1,-1,
08:06:27.131,-1,-2,-2,-1,-2,1,-1,-1,
08:06:27.132,-2,-3,-2,-1,0,-1,1,-1,
08:06:27.133,-2,0,0,-1,-3,0,0,-2,
08:06:27.137,-2,0,-1,0,0,-1,-1,0,
08:06:27.138,-2,-2,-3,-1,-1,-2,0,-2,
08:06:27.145,-2,-2,0,-2,0,1,0,-1,
08:06:27.146,-1,-1,0,-1,-1,-2,-1,-1,
08:06:27.152,-2,1,-4,-1,0,0,0,0,
08:06:27.153,0,0,-2,-1,0,1,-2,0,
08:06:27.168,-1,-1,-3,0,-3,-1,-1,-3,
08:06:27.168,-1,1,-1,-1,-1,0,-1,0,
08:06:27.174,0,-1,4,0,-1,0,-1,0,
08:06:27.175,-3,0,-2,-1,0,-2,-2,0,
08:06:27.198,-1,-1,-1,1,-1,-1,0,1,
08:06:27.199,1,-1,-1,-1,0,0,0,0,
08:06:27.200,0,-3,-2,-1,0,-1,0,-1,
08:06:27.201,-2,-2,0,-1,-2,-1,0,-1,
08:06:27.212,0,0,0,-2,-1,-3,0,-1,
08:06:27.213,-2,-2,-2,-2,0,1,-1,-1,
08:06:27.221,0,-2,-2,-1,-2,-2,-1,-2,
08:06:27.221,0,-2,-2,0,1,-1,-1,-2,
08:06:27.236,2,-1,-1,0,-2,0,-2,-1,
08:06:27.237,-2,-1,-3,0,0,-1,-1,-1,
08:06:27.237,-1,-1,-1,-3,-1,1,-1,-3,
08:06:27.238,-1,0,3,0,-1,-3,-1,-1,
08:06:27.258,0,-2,-1,-1,0,0,-1,0,
08:06:27.259,-1,-2,-1,-1,-1,0,1,-1,
08:06:27.260,-2,1,0,-1,-1,1,-1,-1,
08:06:27.261,0,0,-2,-2,0,-1,0,-2,
08:06:27.272,-1,-2,-1,-1,-2,-2,0,0,
08:06:27.273,0,-3,-3,-2,0,-2,-2,-1,
08:06:27.281,-1,-2,3,-1,-1,0,-1,1,
08:06:27.282,-1,-2,-1,1,-1,0,1,-1,
08:06:27.296,-1,-1,-3,2,0,1,-2,-2,
08:06:27.296,0,0,0,0,-2,-1,0,-1,
08:06:27.298,0,1,-1,0,-1,-3,-1,-2,
08:06:27.299,-1,-1,0,-1,-2,1,-1,0,
08:06:27.318,0,0,1,1,0,0,0,-2,
08:06:27.319,-1,-1,-3,-2,-1,0,-2,0,
08:06:27.320,-1,1,-3,-1,-1,0,-1,0,
08:06:27.320,-1,1,-3,-2,-1,-1,-1,0,
08:06:27.332,-1,-1,-2,-2,-2,-1,0,-1,
08:06:27.333,-2,-1,0,0,-1,-1,0,-2,
08:06:27.341,-1,-2,-3,1,-2,-1,-2,-2,
08:06:27.341,-1,-1,-1,0,-2,-1,-2,-1,
08:06:27.355,-2,-2,0,-1,0,-2,0,0,
08:06:27.356,0,0,1,-1,-2,-1,-1,0,
08:06:27.356,-1,-2,-1,-2,-1,0,-3,-1,
08:06:27.357,-1,-2,0,-1,-1,-1,0,-1,
08:06:27.377,-1,-1,-2,-2,1,-1,-3,-2,
08:06:27.378,0,0,-1,1,0,-1,0,0,
08:06:27.379,-1,-3,0,-1,-1,-2,1,-1,
08:06:27.379,0,-1,0,-1,-1,-1,0,-2,
08:06:27.400,0,0,-1,-1,0,-1,-1,1,
08:06:27.401,1,-2,-2,-2,0,-2,-1,-1,
08:06:27.401,-1,1,-1,-1,0,1,0,-1,
08:06:27.402,-1,0,2,0,-1,1,-1,-1,
08:06:27.415,-2,-3,-3,-2,0,-1,-2,-1,
08:06:27.416,-4,-1,3,-1,-2,-2,-1,0,
08:06:27.416,0,1,1,0,-1,1,-1,-1,
08:06:27.417,0,1,-2,-1,0,-1,-1,-1,
08:06:27.437,-2,1,-2,1,-1,0,0,1,
08:06:27.438,-1,-1,-2,0,-1,-1,-1,0,
08:06:27.439,-1,-4,-2,-1,0,-1,-1,0,
08:06:27.439,0,-2,-2,0,0,-2,-1,-1,
08:06:27.460,0,-1,-1,-2,-2,-1,-1,-2,
08:06:27.461,0,0,-3,-2,-1,-2,-1,-2,
08:06:27.462,-1,0,-1,0,-1,-2,0,-1,
08:06:27.464,0,-3,-2,-2,1,1,-2,-1,
08:06:27.475,-1,0,-1,-1,-1,0,-2,-1,
08:06:27.476,-2,0,0,-1,0,0,-1,-2,
08:06:27.476,-1,-1,1,-2,-2,-1,-2,-1,
08:06:27.477,0,-1,0,-1,0,-1,-2,2,
08:06:27.498,1,0,-1,0,-2,-1,-1,0,
08:06:27.498,0,0,0,0,0,0,0,0,
08:06:27.499,0,-2,-5,0,-2,-1,-1,0,
08:06:27.499,-1,0,-1,0,1,-1,0,-1,
08:06:27.520,0,-1,4,0,0,0,0,-2,
08:06:27.521,0,-3,-4,0,-1,-1,-1,1,
08:06:27.521,-1,2,-1,-3,-1,0,-1,-3,
08:06:27.522,0,-2,-2,1,-2,0,-2,0,
08:06:27.535,0,-1,0,-1,-2,-1,-1,0,
08:06:27.536,-1,0,0,-1,-1,0,-3,-2,
08:06:27.536,0,-3,0,1,-1,-1,-1,-1,
08:06:27.537,0,1,-1,-2,-1,-2,0,-2,
08:06:27.557,-1,0,0,-2,0,-2,0,-1,
08:06:27.558,-2,-2,0,-2,0,0,-1,-1,
08:06:27.558,-2,-3,-1,0,-1,-1,-2,0,
08:06:27.559,-1,1,1,0,-1,-1,-1,-1,
08:06:27.580,-1,0,0,-1,-1,-2,-2,-1,
08:06:27.581,0,0,-1,-3,-2,-2,0,-1,
08:06:27.581,0,1,-1,-1,-1,-1,-1,-2,
08:06:27.582,-1,-2,-1,0,2,1,0,-1,
08:06:27.595,-2,0,-1,0,0,-1,-1,-2,
08:06:27.596,0,-2,-1,-1,0,1,-1,0,
08:06:27.596,1,-1,-1,-1,-1,0,0,-1,
08:06:27.597,-2,-1,-2,-1,-3,-3,0,-1,
08:06:27.617,0,0,-3,-1,0,-1,-1,0,
08:06:27.618,0,0,-1,-1,-1,1,1,-1,
08:06:27.618,0,0,-1,-1,-1,-1,-1,1,
08:06:27.619,1,-2,-2,-1,1,-5,-4,0,
08:06:27.640,-1,-2,-2,-1,0,2,0,-1,
08:06:27.641,-1,-2,-1,0,0,1,1,-1,
08:06:27.641,-2,1,0,0,1,2,-1,0,
08:06:27.642,1,0,-1,-1,-1,-2,-1,0,
08:06:27.655,-1,-3,-3,-2,-1,-1,-2,-3,
08:06:27.656,1,0,0,0,-2,-2,0,-4,
08:06:27.657,-2,1,-2,-1,-2,-1,0,0,
08:06:27.658,-1,-1,-1,1,-3,0,0,-1,
08:06:27.677,-1,1,0,-1,-2,-1,0,-1,
08:06:27.678,0,-2,-2,-1,-1,-1,-1,1,
08:06:27.679,-1,-3,-1,-2,0,-1,0,-2,
08:06:27.679,-2,-2,-1,-1,0,0,0,-1,
08:06:27.700,0,-1,-2,-1,0,-1,-1,-1,
08:06:27.700,-2,0,-2,-2,-1,-2,-2,-1,
08:06:27.701,-2,-1,-1,-1,0,-1,-1,-1,
08:06:27.701,-1,0,1,-1,-1,1,-3,0,
08:06:27.715,-1,0,0,1,2,2,2,1,
08:06:27.715,-2,-1,1,1,1,-1,-3,-1,
08:06:27.716,-2,-2,-4,-3,-2,-4,-2,-2,
08:06:27.717,-2,-2,-1,-3,-3,-2,-1,-1,
08:06:27.737,-3,-1,-4,0,-2,0,-3,-2,
08:06:27.738,0,1,0,1,0,-3,1,0,
08:06:27.738,0,-1,-2,-2,-1,-3,-1,-1,
08:06:27.739,-1,-1,-2,-2,-2,0,1,-2,
08:06:27.760,0,-1,-1,-5,-5,0,1,0,
08:06:27.760,-3,1,-7,-6,-8,-4,-3,-1,
08:06:27.761,-3,-13,6,4,2,-2,-2,-3,
08:06:27.761,1,-4,-1,2,6,2,1,1,
08:06:27.775,3,12,5,10,5,0,1,0,
08:06:27.776,1,12,-4,-12,-7,-2,-1,-3,
08:06:27.776,-4,-3,-11,-11,-11,-6,-5,-4,
08:06:27.777,-3,-10,-12,-2,-5,-8,-7,-3,
08:06:27.797,-1,-16,2,2,-3,1,4,-2,
08:06:27.798,1,24,17,4,2,-4,-7,-4,
08:06:27.798,0,10,1,-1,1,1,1,0,
08:06:27.799,5,7,11,9,2,8,10,3,
08:06:27.820,0,2,-3,-9,-6,-3,2,0,
08:06:27.820,2,9,-3,-2,1,7,5,2,
08:06:27.821,-2,-38,-18,-2,0,1,-3,-1,
08:06:27.823,5,-19,-7,-9,-8,-3,-4,-4,
08:06:27.835,-7,5,-8,-7,-8,-17,-14,-5,
08:06:27.835,-1,-5,28,23,11,14,10,3,
08:06:27.836,2,2,-8,38,29,4,3,3,
08:06:27.836,1,20,9,-19,1,10,5,-1,
08:06:27.857,-1,-6,-3,-12,-13,-12,-5,-4,
08:06:27.858,10,21,-18,-36,-21,-3,0,-1,
08:06:27.858,0,-12,-3,7,-4,-14,-6,2,
08:06:27.859,-28,-25,14,14,5,11,0,-13,
08:06:27.880,6,17,-1,19,16,8,11,4,
08:06:27.880,-8,-24,-31,-18,-12,-8,-10,-1,
08:06:27.881,13,20,-16,-11,-4,6,4,3,
08:06:27.881,7,9,44,-11,-4,-5,-8,-4,
08:06:27.895,-3,5,33,38,8,3,-4,2,
08:06:27.896,0,-12,-16,10,12,-3,1,-2,
08:06:27.896,-1,-6,-44,-27,-8,-3,-9,-1,
08:06:27.897,-3,0,-14,-6,2,-2,8,2,
08:06:27.917,-2,-7,9,4,-11,-5,-3,-2,
08:06:27.918,0,-7,13,11,9,0,1,1,
08:06:27.918,-3,7,15,-17,-13,3,1,-1,
08:06:27.919,-8,-1,-16,-2,-4,8,10,-1,
08:06:27.940,0,-1,-12,-37,-22,-17,-12,-4,
08:06:27.940,-8,-9,-5,-14,-12,-10,-5,-5,
08:06:27.941,0,4,11,37,48,28,16,4,
08:06:27.941,9,14,31,23,7,0,-3,1,
08:06:27.954,-3,-10,-28,-21,-14,-6,-4,-1,
08:06:27.955,-4,-15,-16,-15,-19,-20,-7,-5,
08:06:27.956,-4,3,21,-26,-30,-9,-8,-5,
08:06:27.956,7,10,12,27,15,-6,-1,7,
08:06:27.977,-6,-14,-26,-3,12,3,-1,-2,
08:06:27.978,-7,-8,5,-3,-5,6,5,-2,
08:06:27.978,-1,4,10,-16,-17,-37,-6,0,
08:06:27.978,4,4,-11,15,-10,13,6,0,
08:06:28.000,-1,-1,-1,-5,24,1,0,-3,
08:06:28.000,9,10,28,36,36,33,7,9,
08:06:28.001,-2,-12,-31,10,8,4,-11,-8,
08:06:28.002,-7,-8,-1,-54,-51,-36,-18,-7,
08:06:28.015,3,10,6,9,0,-7,-5,2,
08:06:28.016,5,2,8,40,42,29,33,7,
08:06:28.016,-1,6,7,-7,-18,-31,-15,3,
08:06:28.017,-15,-20,-35,-39,-34,-22,-10,-15,
08:06:28.037,-3,3,-4,-34,-37,20,2,0,
08:06:28.038,6,10,28,57,52,47,15,2,
08:06:28.039,9,16,26,49,77,27,6,6,
08:06:28.039,5,-2,-19,4,-3,-16,-7,2,
08:06:28.060,-8,-11,7,-5,-10,-15,-3,-5,
08:06:28.060,-15,-23,-37,-61,-81,-80,-43,-14,
08:06:28.061,-6,-6,-1,-31,-59,24,17,-7,
08:06:28.061,10,11,9,36,73,38,8,8,
08:06:28.075,8,8,18,59,70,29,13,5,
08:06:28.077,0,-4,-9,-22,-29,-29,-16,-3,
08:06:28.077,-10,-11,-8,-23,-29,15,11,-7,
08:06:28.078,-5,1,-17,-31,-37,-26,-26,-2,
08:06:28.096,-5,-5,-2,4,9,10,-9,-2,
08:06:28.097,3,0,-13,-1,-2,-10,2,2,
08:06:28.104,-3,-3,6,-6,-5,-24,-14,-2,
08:06:28.105,-2,7,18,11,6,11,9,-4,
08:06:28.120,0,-3,-5,-23,-24,-8,17,2,
08:06:28.120,-2,6,27,36,41,17,-12,-5,
08:06:28.121,-1,-5,-7,-20,-19,1,5,-1,
08:06:28.121,1,-7,-4,10,11,9,16,6,
08:06:28.142,1,-7,-23,-7,-10,-28,-26,-3,
08:06:28.143,5,-6,-6,-16,-31,10,20,6,
08:06:28.143,0,-3,9,32,49,5,-1,0,
08:06:28.144,4,17,15,33,26,7,6,0,
08:06:28.156,-3,-14,5,-20,-28,-5,-25,-8,
08:06:28.157,-14,-26,-36,-19,-8,9,5,-4,
08:06:28.164,0,2,-3,-11,-22,-36,-15,-1,
08:06:28.165,3,1,-19,-4,-3,-16,10,6,
08:06:28.179,-3,14,35,10,0,-11,-3,-4,
08:06:28.180,-3,-8,-22,-23,-17,53,24,-5,
08:06:28.181,-2,4,28,1,9,3,1,1,
08:06:28.181,2,-2,-11,21,36,21,5,1,
08:06:28.202,6,7,1,11,-4,-24,9,5,
08:06:28.203,-6,5,-2,-3,-18,-49,-30,-7,
08:06:28.203,-15,-2,-18,-71,-76,-5,3,-10,
08:06:28.204,10,12,6,21,37,23,-4,5,
08:06:28.216,1,3,4,23,34,35,17,0,
08:06:28.217,-1,9,-6,2,14,-11,-8,1,
08:06:28.224,0,1,18,31,12,1,-4,-3,
08:06:28.225,-13,-26,-45,-31,-27,-18,-9,-6,
08:06:28.241,3,14,35,2,-2,9,5,0,
08:06:28.241,-3,3,-11,-35,-33,-30,3,-1,
08:06:28.247,6,5,1,33,33,18,4,5,
08:06:28.247,-3,1,3,-4,0,24,-8,-7,
08:06:28.262,0,-3,7,7,2,-8,-16,-2,
08:06:28.263,4,8,12,8,7,4,12,5,
08:06:28.263,13,19,19,8,7,1,1,6,
08:06:28.264,-26,-57,-41,-33,-32,13,-9,-13,
08:06:28.276,2,4,-18,9,20,21,20,4,
08:06:28.278,-3,-13,-7,8,10,-6,-7,-1,
08:06:28.284,9,14,27,-5,-19,-18,-4,8,
08:06:28.285,1,15,33,19,31,-6,-8,-2,
08:06:28.299,0,9,4,-6,-9,-2,4,1,
08:06:28.300,-4,-11,-39,-2,18,6,-5,-1,
08:06:28.300,-6,-4,0,4,-2,4,-3,-7,
08:06:28.301,-5,-4,-14,-19,-32,-29,-6,-1,
08:06:28.322,-5,-8,-17,-27,-34,-4,2,-5,
08:06:28.323,11,4,-1,12,18,10,10,12,
08:06:28.324,10,21,13,28,32,9,-14,0,
08:06:28.324,4,1,15,-7,-18,3,18,2,
08:06:28.336,2,5,-2,15,15,-28,-14,0,
08:06:28.337,-2,-2,-4,-17,-33,-26,-10,-1,
08:06:28.345,-4,-24,-19,1,16,58,30,3,
08:06:28.346,8,12,10,6,9,10,2,6,
08:06:28.359,-5,-2,-6,-12,-12,-3,-6,-4,
08:06:28.360,2,20,24,9,-2,-29,-4,-3,
08:06:28.360,-12,-17,-49,-15,-3,-5,-16,-7,
08:06:28.361,3,2,14,1,-6,-21,-1,0,
08:06:28.382,-2,-10,-29,-23,-11,11,3,0,
08:06:28.383,-2,11,51,37,38,32,5,0,
08:06:28.383,9,7,12,4,4,-15,1,2,
08:06:28.384,-9,-26,-58,-16,-20,-17,-14,-8,
08:06:28.405,2,6,26,-3,-6,4,4,2,
08:06:28.406,7,18,55,27,27,9,-4,-3,
08:06:28.406,-12,-21,-40,-23,-21,-19,-2,-5,
08:06:28.407,2,-5,27,12,4,-29,-11,2,
08:06:28.419,-9,-14,-12,-3,-8,2,-5,-9,
08:06:28.420,1,-4,-32,-24,-17,25,1,1,
08:06:28.420,4,8,26,10,0,-19,8,8,
08:06:28.421,1,-4,2,3,14,26,4,1,
08:06:28.442,0,4,20,15,1,-4,9,3,
08:06:28.442,4,0,0,-4,-6,-21,-3,-3,
08:06:28.443,-4,-7,-17,-14,-11,-13,0,-2,
08:06:28.443,-8,-5,2,-4,-13,-12,-16,-6,
08:06:28.466,-2,-9,-26,-12,-5,-4,2,0,
08:06:28.467,2,-2,-3,0,6,-1,3,2,
08:06:28.467,-1,4,3,1,-1,-1,0,-3,
08:06:28.468,6,10,8,-2,-6,7,9,6,
08:06:28.480,5,-6,-11,-5,2,-5,-7,0,
08:06:28.481,-3,-22,-3,-4,9,14,-3,-4,
08:06:28.481,-13,-17,9,15,10,4,0,-10,
08:06:28.483,2,9,5,-2,6,29,10,1,
08:06:28.503,-5,-11,12,17,20,1,-1,1,
08:06:28.504,-9,-48,-21,-23,-23,-18,-13,-3,
08:06:28.504,-8,-15,-16,-12,-15,-22,-8,-5,
08:06:28.505,3,-11,-6,4,1,1,6,2,
08:06:28.526,1,-21,10,-1,-4,6,0,-4,
08:06:28.526,6,47,6,0,1,4,2,4,
08:06:28.527,1,45,17,5,3,-1,-2,-4,
08:06:28.527,8,64,-13,-9,-6,-7,1,3,
08:06:28.540,-15,-1,-13,-2,2,-9,1,-4,
08:06:28.541,6,4,29,26,15,15,9,7,
08:06:28.541,5,40,-31,1,17,26,8,5,
08:06:28.542,2,15,48,8,-3,-17,-8,1,
08:06:28.563,2,8,-18,-16,-7,20,6,0,
08:06:28.564,-10,-2,20,0,-17,-27,-7,-8,
08:06:28.564,4,-59,11,0,-4,17,1,1,
08:06:28.565,-2,-30,10,16,13,-2,-2,-1,
08:06:28.586,4,-13,-47,-20,-8,-1,2,4,
08:06:28.587,-10,-13,-1,-14,-15,-17,-14,-8,
08:06:28.588,0,-19,-2,2,0,-12,-5,-1,
08:06:28.589,1,-26,8,12,15,22,14,4,
08:06:28.600,8,10,30,5,-1,-2,-10,1,
08:06:28.601,5,-1,11,6,5,0,-6,1,
08:06:28.601,-19,-51,-73,-30,-27,-44,-18,-12,
08:06:28.602,3,-10,-19,-7,8,38,26,5,
08:06:28.623,0,-18,4,10,10,-7,-4,2,
08:06:28.624,-3,12,-5,-8,-9,-10,-2,-6,
08:06:28.624,10,-26,26,14,8,7,3,6,
08:06:28.625,-6,9,-4,-6,-15,-41,-19,-7,
08:06:28.646,-8,-22,-17,-3,12,48,14,-3,
08:06:28.647,1,14,7,4,2,-3,-14,-4,
08:06:28.647,1,-13,-20,-19,-15,-14,-4,-2,
08:06:28.648,2,-2,20,5,-4,-6,-16,-2,
08:06:28.660,3,5,16,15,5,-9,-1,1,
08:06:28.661,-19,2,-25,-6,-2,3,-1,-8,
08:06:28.661,7,5,24,9,8,13,6,4,
08:06:28.662,6,-9,-29,-15,-13,0,-4,-4,
08:06:28.683,-5,5,12,-2,-6,-18,-9,-2,
08:06:28.683,2,3,-11,-12,-9,8,7,3,
08:06:28.684,-3,-19,-16,-4,13,9,-1,1,
08:06:28.685,-3,7,37,16,-2,-15,-5,-5,
08:06:28.706,6,34,1,-6,-9,-28,-9,3,
08:06:28.708,-2,11,12,7,15,42,23,1,
08:06:28.708,-2,-7,-20,-7,0,1,12,-2,
08:06:28.709,-4,-2,-10,-6,-1,0,-6,-3,
08:06:28.720,-1,21,-9,-1,-3,-11,-6,-4,
08:06:28.721,1,12,-4,-5,-8,-12,-7,0,
08:06:28.721,-1,6,22,12,8,5,-8,-1,
08:06:28.722,-2,1,-19,-3,3,-1,8,3,
08:06:28.743,-3,15,35,11,-2,-5,-6,-6,
08:06:28.744,9,-12,-28,-12,2,0,4,4,
08:06:28.744,-1,16,30,3,-12,-9,-5,-4,
08:06:28.744,-16,-14,-28,-11,-5,-7,-5,-6,
08:06:28.773,15,9,11,12,14,15,5,5,
08:06:28.774,-15,-28,-34,-22,-15,-5,-7,-7,
08:06:28.775,0,4,13,3,3,13,3,1,
08:06:28.775,1,5,-14,2,-1,-18,3,1,
08:06:28.780,0,3,7,-9,-5,13,-1,-2,
08:06:28.781,5,-1,9,7,6,-3,0,1,
08:06:28.781,5,4,12,9,5,3,-4,0,
08:06:28.781,-2,4,8,0,1,8,6,-2,
08:06:28.803,-7,-5,-34,-10,-6,-2,-1,-2,
08:06:28.803,8,6,25,6,-4,-14,-9,3,
08:06:28.804,-1,-15,-22,-6,1,-10,-3,0,
08:06:28.804,-2,-2,-12,-10,-7,10,0,-1,
08:06:28.826,-4,-16,-34,-8,-1,-5,5,-1,
08:06:28.826,-1,16,59,19,3,12,7,-1,
08:06:28.827,4,2,11,-1,-7,-7,-3,3,
08:06:28.827,0,-11,4,-5,2,1,-2,-1,
08:06:28.840,-2,-16,-4,5,-2,0,4,-2,
08:06:28.841,-2,-9,-16,-9,0,-6,-6,-5,
08:06:28.841,-1,7,27,13,6,9,10,6,
08:06:28.842,3,-11,-12,-6,0,8,0,-4,
08:06:28.863,-4,-23,-39,-18,-9,-10,-5,-1,
08:06:28.863,-11,-6,26,11,0,-12,6,-3,
08:06:28.864,2,-1,27,8,2,17,0,-1,
08:06:28.864,1,11,-8,-6,-4,-17,-8,-2,
08:06:28.886,-2,-12,-29,-7,0,-9,-8,0,
08:06:28.887,-2,4,2,-5,-7,7,8,-2,
08:06:28.887,-3,-9,-23,-3,6,-1,-1,-4,
08:06:28.888,9,2,17,4,-7,-5,3,3,
08:06:28.900,8,-11,8,7,15,27,7,3,
08:06:28.901,-18,-20,-35,-17,-13,-10,-22,-7,
08:06:28.901,-4,-16,2,3,5,6,1,-6,
08:06:28.902,4,-2,-2,0,-5,-4,-8,2,
08:06:28.922,-6,4,46,10,1,-1,2,-5,
08:06:28.923,9,7,-5,-4,2,1,2,5,
08:06:28.923,-3,-22,-19,-3,4,-4,0,-3,
08:06:28.924,-4,-8,-4,-7,-12,-6,-7,-4,
08:06:28.946,-9,-1,8,1,3,2,-1,-3,
08:06:28.946,9,-13,-1,8,4,-10,-5,1,
08:06:28.947,-1,16,25,4,-13,-20,-28,-8,
08:06:28.947,-7,-24,-37,-18,0,37,36,6,
08:06:28.960,-4,-5,6,-8,-16,-4,-6,-4,
08:06:28.961,7,4,-3,7,8,-21,-6,4,
08:06:28.961,5,-17,-31,-6,19,50,23,7,
08:06:28.962,-2,21,54,27,11,-12,-16,-4,
08:06:28.982,-1,5,-1,-3,0,1,0,-1,
08:06:28.983,-2,-17,-12,-12,-14,-13,-7,-2,
08:06:28.983,-2,-16,-10,-10,-16,-16,0,-2,
08:06:28.984,1,0,-3,5,11,1,-3,1,
08:06:29.013,3,4,1,8,6,1,4,1,
08:06:29.014,-3,-18,-15,-12,-7,-1,-5,-2,
08:06:29.014,1,-1,-23,-20,-25,-14,-4,3,
08:06:29.015,-9,-12,9,9,19,17,-2,-6,
08:06:29.019,6,-6,-1,5,4,-6,-1,2,
08:06:29.020,-3,-3,10,10,10,8,4,-2,
08:06:29.027,-2,-4,-11,-8,-10,-8,-4,-2,
08:06:29.029,-3,2,-6,-22,-29,-24,-8,0,
08:06:29.042,6,-12,1,0,6,5,5,2,
08:06:29.043,1,17,24,26,22,11,7,2,
08:06:29.050,-5,-6,5,4,5,1,-8,-3,
08:06:29.050,0,-6,-18,-12,-7,-10,-6,-2,
08:06:29.066,-9,-28,-21,-16,-15,-7,-6,-7,
08:06:29.066,-3,-13,-18,-11,-11,0,0,-3,
08:06:29.067,8,20,29,17,10,-11,4,3,
08:06:29.067,2,6,-10,-2,4,8,2,2,
08:06:29.079,12,6,3,-2,-6,4,-21,-3,
08:06:29.080,-36,-8,-9,-5,-8,2,-1,-13,
08:06:29.087,-10,13,-6,-16,-7,-12,4,0,
08:06:29.088,8,21,20,21,15,12,2,3,
08:06:29.102,-5,9,-4,1,6,6,6,-2,
08:06:29.103,17,7,3,0,-2,-2,-4,4,
08:06:29.105,-4,-15,-41,-17,-13,-7,-7,-4,
08:06:29.106,-8,15,26,2,-8,-13,-3,-2,
08:06:29.125,-3,15,4,4,-4,-9,-3,2,
08:06:29.126,8,-9,-14,-5,4,11,3,3,
08:06:29.126,-4,-2,5,0,-5,-15,0,-3,
08:06:29.127,6,-3,-12,-7,-1,-4,1,2,
08:06:29.148,-8,-14,-26,-5,-6,3,3,-4,
08:06:29.149,4,7,20,5,6,9,4,3,
08:06:29.149,-2,8,38,23,22,7,2,2,
08:06:29.149,-3,-7,-3,7,11,2,1,-4,
08:06:29.162,0,7,4,-5,-5,-7,2,0,
08:06:29.163,-3,-27,-51,-21,-14,-6,-3,-1,
08:06:29.164,-8,2,5,-4,-6,3,-4,-5,
08:06:29.165,2,-1,-3,-5,-11,-7,-5,-1,
08:06:29.185,-1,-12,-12,-6,4,2,3,2,
08:06:29.186,10,-7,34,18,7,2,0,4,
08:06:29.187,-7,12,8,-1,-6,-1,-5,-4,
08:06:29.187,8,38,1,-8,-10,-4,-1,0,
08:06:29.199,5,-4,-2,-2,0,0,2,3,
08:06:29.200,-1,7,3,-6,-8,0,1,0,
08:06:29.207,-14,-27,-10,1,1,2,-1,-7,
08:06:29.208,-1,-11,-8,3,11,1,0,1,
08:06:29.222,0,-14,14,5,-2,-3,-2,-1,
08:06:29.223,9,-9,-4,0,4,2,2,-1,
08:06:29.224,24,-13,-9,6,1,-3,0,8,
08:06:29.224,-25,10,-2,-32,-35,2,2,-3,
08:06:29.245,-5,6,16,28,40,9,-2,-11,
08:06:29.246,-27,-35,-10,-2,-1,-5,-8,-11,
08:06:29.247,13,-11,-4,-5,-8,-4,1,10,
08:06:29.247,-3,68,-7,-6,-7,-7,-6,-7,
08:06:29.259,5,-10,5,-2,-6,-3,4,11,
08:06:29.260,-1,-17,0,-4,-3,0,-2,-12,
08:06:29.275,-13,-16,-5,-3,-2,-1,-3,-8,
08:06:29.275,4,-50,-2,9,8,2,3,6,
08:06:29.282,21,-6,7,-1,-7,0,5,9,
08:06:29.283,2,-26,17,12,7,-3,-2,-2,
08:06:29.283,-41,-16,-19,-25,-16,-4,-14,-20,
08:06:29.284,-12,-26,-5,5,7,-5,-5,-3,
08:06:29.305,1,13,3,-4,-11,-6,-2,2,
08:06:29.306,25,4,-2,-3,-4,6,10,17,
08:06:29.307,19,18,20,13,10,12,10,7,
08:06:29.307,1,-13,0,3,3,0,-1,-6,
08:06:29.319,-3,-3,-4,-4,-6,-8,-3,0,
08:06:29.321,2,19,-8,-3,-4,-2,-2,2,
08:06:29.327,-23,10,2,1,-1,-3,-5,-17,
08:06:29.327,3,-15,-8,-4,-2,-4,-4,-5,
08:06:29.342,-16,-21,-4,-4,-6,-3,-5,-7,
08:06:29.343,-10,-8,-9,-4,0,-6,-5,-4,
08:06:29.343,24,-3,11,5,6,1,2,10,
08:06:29.343,11,-13,-14,-13,-9,-1,2,0,
08:06:29.365,-11,5,12,9,5,5,6,-3,
08:06:29.366,-1,-2,6,6,6,-1,-4,-2,
08:06:29.366,-1,-1,-9,-6,-3,-3,-2,6,
08:06:29.367,7,-11,4,2,-6,-4,-3,1,
08:06:29.388,5,1,-4,-5,-2,-3,-2,1,
08:06:29.388,1,-8,-7,-5,-1,0,1,-2,
08:06:29.389,6,0,4,4,-2,1,1,-2,
08:06:29.390,8,2,6,4,11,7,2,7,
08:06:29.402,-5,-3,-1,-1,-2,0,-1,-5,
08:06:29.403,-20,-7,-4,-2,-1,-2,-4,-6,
08:06:29.403,10,-6,1,-1,-3,-3,0,1,
08:06:29.403,-4,57,-5,-4,-8,-6,-2,6,
08:06:29.425,-7,100,1,2,1,1,-2,-8,
08:06:29.426,6,73,0,5,4,2,-1,-3,
08:06:29.427,-4,78,-8,-3,2,3,0,-5,
08:06:29.427,-5,36,0,1,1,-5,-2,-6,
08:06:29.448,2,-15,-3,-13,-13,-4,-3,0,
08:06:29.448,0,-35,0,1,-1,-2,1,5,
08:06:29.449,-7,-60,-3,14,8,-3,-3,-4,
08:06:29.449,19,-56,13,-14,-18,-3,-1,-2,
08:06:29.462,-9,-30,2,11,18,9,0,2,
08:06:29.463,-5,-23,-6,-6,-5,-2,-3,-2,
08:06:29.463,9,4,-1,-3,-1,-1,2,1,
08:06:29.463,-17,-33,-1,5,1,-7,-4,-3,
08:06:29.485,-7,-21,-13,-13,-19,-13,-7,-9,
08:06:29.486,7,-14,8,0,1,4,1,2,
08:06:29.487,7,-14,7,7,12,6,2,7,
08:06:29.487,1,-41,-5,4,8,5,4,-1,
08:06:29.508,14,-43,1,9,2,-6,-4,0,
08:06:29.508,-33,-21,-15,-41,-30,-5,-4,-11,
08:06:29.509,-5,10,15,24,24,7,4,1,
08:06:29.510,-4,-22,-9,-7,-2,-1,0,-1,
08:06:29.522,-2,-19,-5,5,3,-1,1,3,
08:06:29.523,16,15,8,-2,-11,-10,-7,0,
08:06:29.523,-9,8,-4,-22,-28,-8,-3,-5,
08:06:29.525,-1,-8,1,-3,9,14,5,2,
08:06:29.545,1,-12,-5,-2,-5,3,0,-4,
08:06:29.546,3,5,0,16,23,3,0,4,
08:06:29.546,-7,6,-4,-3,0,1,-2,-4,
08:06:29.547,3,-9,-4,6,-1,-4,-1,3,
08:06:29.568,3,11,-1,-14,-14,-21,-8,-2,
08:06:29.569,-2,12,-1,3,4,20,1,-3,
08:06:29.569,2,6,-2,0,1,-2,0,1,
08:06:29.570,-8,-8,-1,-1,-4,-9,-6,-7,
08:06:29.582,-5,-9,-5,-5,-3,4,0,0,
08:06:29.583,23,-16,-7,2,3,-9,0,3,
08:06:29.583,-17,1,4,3,3,-2,2,0,
08:06:29.583,-13,-6,1,0,-8,-5,-5,-7,
08:06:29.613,-2,5,6,-3,-1,1,3,2,
08:06:29.614,8,7,0,13,17,3,6,4,
08:06:29.615,14,6,-4,-7,-5,1,-1,0,
08:06:29.615,-17,-6,4,2,2,-7,-7,-4,
08:06:29.628,-2,3,-4,-4,-5,-1,-4,-4,
08:06:29.628,-3,-7,-9,-14,-16,-4,-1,2,
08:06:29.629,3,10,2,7,14,6,-1,-3,
08:06:29.629,10,-12,-4,2,4,0,0,3,
08:06:29.642,-1,22,9,4,6,4,4,1,
08:06:29.643,-6,-1,-1,1,-4,-5,-2,-3,
08:06:29.643,-3,-1,-6,-6,-9,-7,-2,1,
08:06:29.644,11,13,-6,-3,-5,-2,-3,-2,
08:06:29.665,-3,-12,0,0,2,3,1,1,
08:06:29.666,-2,-1,-1,1,-1,-4,-2,-4,
08:06:29.666,4,22,1,-5,-6,0,-1,3,
08:06:29.667,1,-1,3,-4,-1,6,5,-1,
08:06:29.688,3,2,6,13,16,4,0,2,
08:06:29.688,-5,6,-1,2,2,-1,-1,-1,
08:06:29.689,12,1,-1,-3,-6,0,-1,3,
08:06:29.690,-13,-39,-8,-3,-6,-4,-3,0,
08:06:29.702,17,25,3,-3,-5,0,0,-6,
08:06:29.703,-5,26,7,1,2,2,2,-3,
08:06:29.703,-4,-2,-1,-6,-4,0,-1,-2,
08:06:29.704,-2,8,1,3,2,-1,-1,-2,
08:06:29.725,-4,-15,-6,-5,-6,-6,-3,-1,
08:06:29.726,2,-15,-6,1,3,-1,-2,-2,
08:06:29.728,1,11,2,-3,-1,0,-1,0,
08:06:29.729,0,6,-2,1,1,-2,0,1,
08:06:29.748,-7,-16,3,5,0,-7,-6,-3,
08:06:29.748,4,5,4,0,-6,3,4,3,
08:06:29.749,-7,-13,-7,-10,-2,-2,-2,0,
08:06:29.749,-2,3,-3,12,21,9,5,0,
08:06:29.762,-3,-1,2,4,2,2,0,4,
08:06:29.763,-6,-7,-3,-1,-5,-6,-3,-2,
08:06:29.763,4,4,11,2,-5,-4,-2,-1,
08:06:29.763,5,-1,-15,-9,-9,-3,-5,0,
08:06:29.785,2,36,3,-4,-1,3,3,-2,
08:06:29.786,-5,-4,1,0,0,1,-2,-2,
08:06:29.786,-6,-10,-5,-2,-3,-1,-1,-2,
08:06:29.786,-5,8,8,1,1,-1,-1,-1,
08:06:29.808,-3,-11,-5,1,-1,0,-1,2,
08:06:29.808,2,-8,-6,-2,0,-1,0,2,
08:06:29.809,-4,-6,-22,-9,-4,-4,-3,-4,
08:06:29.809,3,12,9,0,0,-1,-3,-1,
08:06:29.822,-5,-11,-18,-8,-4,-1,-1,0,
08:06:29.823,-2,0,3,3,0,-1,-1,-2,
08:06:29.823,1,-6,0,3,3,2,1,1,
08:06:29.824,-1,-5,6,3,0,1,1,-2,
08:06:29.845,-2,-8,8,-3,-4,-3,-1,-3,
08:06:29.846,-3,-6,0,2,1,-2,0,-1,
08:06:29.853,-2,-1,0,-4,-3,1,0,-1,
08:06:29.853,2,1,-6,-4,-3,-1,-2,-1,
08:06:29.868,-3,-5,-1,-3,-1,0,0,-2,
08:06:29.868,0,-2,-2,-1,0,-2,0,0,
08:06:29.869,0,2,0,4,-1,-1,-1,-2,
08:06:29.870,1,-5,5,0,0,0,-1,-1,
08:06:29.881,-1,-10,0,-2,0,0,2,1,
08:06:29.882,-3,-1,-16,-7,-3,-3,-2,-1,
08:06:29.890,0,3,1,0,-1,-2,-1,0,
08:06:29.891,-1,3,3,1,-1,0,1,-1,
08:06:29.904,-1,-4,2,1,-3,0,0,-1,
08:06:29.904,-1,-3,6,-2,-2,0,-1,-1,
08:06:29.920,0,2,2,2,0,-2,-1,1,
08:06:29.921,0,1,-5,0,-1,0,-1,-1,
08:06:29.927,-1,-5,-2,-3,0,-1,-1,-2,
08:06:29.928,0,1,1,1,0,0,-2,-1,
08:06:29.929,-1,0,-2,0,-1,-1,2,-2,
08:06:29.930,-2,-2,-3,0,0,0,-2,-2,
08:06:29.941,-2,-1,0,-3,-3,-3,-1,0,
08:06:29.942,1,3,-4,-2,-1,-1,-1,0,
08:06:29.950,0,-1,1,0,-1,-2,-2,-1,
08:06:29.951,-4,-4,-4,-4,-3,-1,1,-1,
08:06:29.965,-1,-1,-3,-2,-1,0,-3,-2,
08:06:29.965,2,0,3,1,1,-1,-1,0,
08:06:29.973,-1,-1,1,-2,0,0,0,-1,
08:06:29.974,0,2,0,1,-1,2,-1,-1,
08:06:29.988,-1,-3,-3,-1,2,1,-1,1,
08:06:29.989,-2,0,0,-3,-2,-2,1,1,
08:06:29.990,-2,-5,0,2,-2,-1,-1,-1,
08:06:29.991,0,-1,-4,-1,-2,-1,-2,-2,
08:06:30.002,-1,-1,-2,-1,-2,-2,-3,0,
08:06:30.003,-2,-1,0,-2,1,-1,-2,-2,
08:06:30.011,-3,0,1,-2,-1,-1,0,-6,
08:06:30.012,1,3,2,0,-1,-4,-1,-2,
08:06:30.025,-1,-8,0,0,-3,-1,-3,-4,
08:06:30.025,3,-4,1,-1,1,0,2,9,
08:06:30.033,0,-1,-2,0,0,0,0,-1,
08:06:30.034,-6,1,-2,-2,-1,-1,-3,-18,
08:06:30.048,2,1,-3,-4,-1,-1,2,3,
08:06:30.049,-3,1,-2,-1,-2,-1,-5,-8,
08:06:30.051,1,2,-1,1,0,1,1,12,
08:06:30.052,-1,-1,-1,-2,1,-2,0,1,
08:06:30.062,-2,0,-1,-1,-1,-1,-2,-6,
08:06:30.063,0,1,0,0,-1,0,2,6,
08:06:30.071,-3,0,-2,0,-1,-1,-1,-3,
08:06:30.071,0,-3,2,-1,-2,-2,-2,2,
08:06:30.085,-2,-1,-2,-1,-1,-1,-1,1,
08:06:30.086,-2,-2,0,-1,-2,1,0,-2,
08:06:30.092,-2,-1,-2,-1,-1,-2,-2,-4,
08:06:30.093,1,0,-2,1,-1,1,0,8,
08:06:30.108,-5,-2,0,-2,-2,-2,-1,-10,
08:06:30.109,-2,0,-2,-1,-1,1,-1,-3,
08:06:30.110,0,1,0,-3,1,0,-1,-4,
08:06:30.111,0,-1,-1,-1,0,-1,0,5,
08:06:30.122,0,0,1,0,0,-3,-1,1,
08:06:30.123,-1,-2,-1,-1,-2,-1,-1,-5,
08:06:30.131,-1,-2,-1,-2,-2,0,-2,-1,
08:06:30.132,0,-1,-3,-1,-2,-1,0,1,
08:06:30.145,-1,-1,0,0,-1,-1,-1,-1,
08:06:30.146,0,-1,-1,0,-1,-2,-3,-5,
08:06:30.152,0,-1,-2,-1,3,-1,-1,3,
08:06:30.154,-1,-1,-2,-1,-2,-2,-2,-2,
08:06:30.168,-2,0,-1,-1,-2,-1,-1,1,
08:06:30.169,0,-2,-2,-1,0,-1,-1,2,
08:06:30.170,0,-2,1,-3,-2,-1,-2,-2,
08:06:30.170,-1,-2,-2,-1,0,-1,-3,-3,
08:06:30.182,2,-1,-3,-1,-1,-1,-1,-1,
08:06:30.182,-1,-1,-1,0,-2,-2,0,1,
08:06:30.191,1,0,-1,-1,-1,-3,-1,-1,
08:06:30.191,-1,-1,0,-1,-2,0,-2,-2,
08:06:30.205,-1,-2,0,-1,-3,0,0,2,
08:06:30.206,-1,0,0,-1,-1,-2,-1,-3,
08:06:30.212,-2,-1,-2,1,-2,-1,-1,0,
08:06:30.212,0,0,-1,-2,1,0,1,0,
08:06:30.228,-1,-1,0,-1,-2,0,0,-1,
08:06:30.229,-2,-3,-1,0,-1,0,0,-2,
08:06:30.230,-2,1,0,1,-2,0,-1,-2,
08:06:30.231,-1,1,0,-2,0,0,0,-1,
08:06:30.242,-2,-1,0,-2,-1,0,-1,0,
08:06:30.243,-1,1,-1,-3,0,-1,-2,-1,
08:06:30.251,-1,-1,0,0,-1,-1,-1,0,
08:06:30.252,-2,-2,1,-1,-2,-1,-2,-1,
08:06:30.265,-1,-1,-1,-1,0,0,-1,-1,
08:06:30.266,0,0,-1,0,-2,0,-1,-1,
08:06:30.272,1,-1,-1,-1,-1,-1,-1,0,
08:06:30.272,-1,1,-2,-1,0,-1,0,0,
08:06:30.288,-3,-1,-2,-1,1,-1,0,0,
08:06:30.289,0,0,-1,-1,-1,-2,-1,0,
08:06:30.290,-1,0,-1,0,-2,0,-1,-2,
08:06:30.291,0,-2,-2,-1,-1,-1,-1,-1,
08:06:30.311,-1,-1,-2,-1,-2,-3,-1,-1,
08:06:30.311,0,0,0,-1,-2,-1,1,-2,
08:06:30.312,-1,0,0,-1,0,0,-2,-2,
08:06:30.313,-1,-1,-1,0,-2,-1,1,0,
08:06:30.325,-1,-1,-1,-1,-2,0,0,-1,
08:06:30.326,0,-2,-1,-1,-2,1,-1,0,
08:06:30.332,0,-1,-1,-1,-3,0,0,-1,
08:06:30.332,-1,-2,0,-2,-1,-1,-2,0,
08:06:30.348,-1,0,-1,-1,-1,-1,-2,-1,
08:06:30.349,-3,0,-1,1,0,-3,-1,-2,
08:06:30.350,0,0,-2,-2,-2,0,0,0,
08:06:30.350,-1,-1,-1,0,-1,-2,0,0,
08:06:30.371,0,-1,-2,-2,-1,-1,1,0,
08:06:30.371,0,-2,-1,-2,0,0,-1,-2,
08:06:30.372,0,0,0,0,-1,-2,0,0,
08:06:30.373,1,-1,0,-1,0,-2,1,-2,
08:06:30.384,-1,-2,-1,0,-2,0,-3,-3,
08:06:30.385,0,-3,-1,-2,-1,-1,0,-1,
08:06:30.393,0,0,-1,-1,0,0,-1,-1,
08:06:30.394,1,-2,-2,0,-2,-1,0,0,
08:06:30.408,0,0,0,0,-2,-1,-2,0,
08:06:30.409,0,-2,-1,-2,0,0,0,0,
08:06:30.410,-2,-2,-2,-1,-2,-2,-2,-1,
08:06:30.410,-2,0,1,-1,0,-1,-2,-1,
08:06:30.431,0,-1,-2,-1,0,-2,1,-2,
08:06:30.431,-2,-1,-2,0,-2,-1,-1,0,
08:06:30.432,-2,0,-1,-1,0,-3,-1,0,
08:06:30.433,-2,-3,-2,0,-1,-1,0,-1,
08:06:30.445,-2,-1,-2,-1,1,0,-1,0,
08:06:30.445,-1,-2,-1,-1,-1,-2,-1,-1,
08:06:30.453,-1,-1,-1,0,0,0,0,-2,
08:06:30.454,-1,-2,0,0,-2,0,-2,-2,
08:06:30.468,-1,-1,0,0,-1,0,-1,-1,
08:06:30.469,0,-1,-1,-2,0,-3,-1,-1,
08:06:30.470,-4,-1,0,-1,-1,-1,0,0,
08:06:30.470,-2,-2,-1,-1,-2,-1,-3,-2,
08:06:30.491,-2,-1,-3,-1,-1,-1,-2,-1,
08:06:30.491,0,0,0,-1,-1,-3,-3,1,
08:06:30.492,0,0,0,-2,0,-2,0,-2,
08:06:30.493,0,0,-1,-1,0,-2,-1,-3,
08:06:30.505,-1,-1,1,-2,1,-1,0,-2,
08:06:30.506,-1,-2,-1,0,1,-1,1,0,
08:06:30.512,0,-1,-3,0,-1,1,1,-1,
08:06:30.512,1,-1,-1,0,-2,-1,-2,-1,
08:06:30.528,0,-1,0,0,-1,-1,0,0,
08:06:30.529,-3,0,-2,1,-1,-1,-1,0,
08:06:30.530,-1,-1,-1,0,-1,0,-3,-1,
08:06:30.531,-2,-1,-2,-1,0,-1,-1,0,
08:06:30.551,0,0,-1,0,-1,-2,-1,-1,
08:06:30.551,-1,-1,0,0,-1,-2,0,-2,
08:06:30.552,1,-1,0,-2,-2,-1,-1,-2,
08:06:30.553,-2,-1,-1,-1,-3,0,0,0,
08:06:30.565,-1,-2,-1,0,-2,-3,-2,0,
08:06:30.565,0,1,-1,-3,-1,-1,-2,-2,
08:06:30.572,-1,-2,-2,-2,0,-4,0,-2,
08:06:30.573,-2,-1,0,0,-1,0,1,-1,
08:06:30.588,-2,-3,-1,0,-1,0,0,-2,
08:06:30.589,-1,-2,0,-1,-2,-1,-1,-2,
08:06:30.590,0,-1,-1,0,-1,-1,-2,0,
08:06:30.590,0,-1,-1,-2,1,0,-1,-1,
08:06:30.611,-1,-2,-1,0,-1,1,0,0,
08:06:30.611,-2,-1,0,-2,0,-1,-1,-1,
08:06:30.612,-2,0,0,-2,0,-1,-1,0,
08:06:30.613,1,-1,-1,-2,0,-2,-1,-2,
08:06:30.625,-1,-1,-1,-2,-1,-1,-1,0,
08:06:30.625,0,1,1,-2,0,-1,-1,-1,
08:06:30.632,-1,1,-1,-1,-1,1,-1,0,
08:06:30.632,-3,0,-1,-1,1,0,1,0,
08:06:30.648,0,1,-2,-1,-1,-1,-1,1,
08:06:30.649,-1,0,-1,1,-3,0,-1,1,
08:06:30.650,-2,0,-1,0,0,-1,-1,-2,
08:06:30.650,-2,0,-2,0,-1,-2,-1,-2,
08:06:30.671,-2,-2,0,-1,0,-2,0,0,
08:06:30.671,-2,0,-1,-1,0,-1,0,-2,
08:06:30.672,-1,-1,1,-1,-3,-1,1,-2,
08:06:30.673,1,-2,0,-1,-1,0,0,-1,
08:06:30.684,-1,1,0,-1,-1,0,-1,-3,
08:06:30.685,1,0,-2,0,0,-1,-1,-1,
08:06:30.693,0,-1,-1,-2,0,-2,-1,0,
08:06:30.693,-2,-1,0,-2,0,-1,-1,0,
08:06:30.708,0,-1,-1,0,-1,0,-1,-1,
08:06:30.709,0,-1,-1,-1,-1,-1,-1,-1,
08:06:30.709,0,-3,0,-2,0,-2,-1,0,
08:06:30.710,-1,0,-2,0,0,-1,-2,-1,
08:06:30.730,-2,-2,0,-1,-2,-1,0,-1,
08:06:30.731,-1,-1,-1,-1,-2,0,1,-1,
08:06:30.733,0,-2,-1,-1,-1,0,-2,1,
08:06:30.733,-1,-1,-1,-1,-2,-1,-2,-1,
08:06:30.745,-1,0,-1,-2,0,0,-1,-1,
08:06:30.746,-1,-1,-1,-2,-1,-1,0,0,
08:06:30.752,-1,-1,-2,-1,-2,0,-3,-1,
08:06:30.752,-1,-2,2,0,-2,-1,-1,0,
08:06:30.768,-1,-1,-1,2,0,-1,-3,-1,
08:06:30.768,1,0,0,-1,-1,0,0,-1,
08:06:30.769,-1,1,-1,-1,-2,0,0,-1,
08:06:30.770,-2,-1,-3,-2,-1,-2,-2,-1,
08:06:30.790,-2,0,-1,-1,1,-2,-1,-1,
08:06:30.792,-1,-1,-2,-2,0,-1,-2,0,
08:06:30.793,-2,-1,-1,0,-2,-1,-3,0,
08:06:30.793,-1,-1,0,1,-1,-1,0,0,
08:06:30.804,-1,-2,1,0,-2,-1,-2,0,
08:06:30.804,-2,0,-2,-1,-1,-1,0,0,
08:06:30.813,-1,0,0,-1,-1,-1,1,-1,
08:06:30.813,-1,-1,-1,0,-1,-1,-1,-1,
08:06:30.828,-1,-1,-1,-1,0,-1,-2,-2,
08:06:30.828,0,-1,0,1,-1,-2,-1,-1,
08:06:30.829,-1,-2,0,-1,1,1,0,-1,
08:06:30.830,0,-1,-2,-1,-1,0,-1,0,
08:06:30.850,1,-3,-2,-2,-1,1,1,-1,
08:06:30.851,-2,-2,1,-1,0,-1,-1,-1,
08:06:30.852,0,0,-1,0,0,-1,-1,-2,
08:06:30.852,-1,-1,-1,-1,-2,-1,0,-1,
08:06:30.864,0,-1,-1,-1,0,-1,0,-1,
08:06:30.865,-1,-1,-1,1,-2,0,-1,-2,
08:06:30.873,0,-2,-3,-2,-1,-2,-2,0,
08:06:30.874,-1,-1,-1,-1,-1,-1,0,-2,
08:06:30.888,-1,-1,-2,-1,-1,1,-1,1,
08:06:30.889,-1,-2,-2,-2,0,-1,-1,-1,
08:06:30.889,-1,0,-1,0,1,-1,-1,-1,
08:06:30.891,1,-2,-3,-3,-1,0,-2,0,
08:06:30.911,-1,-1,0,-1,-2,-3,-2,-1,
08:06:30.912,-2,0,0,-1,-1,-1,-1,-1,
08:06:30.912,-1,-3,-1,0,-1,-1,-1,-1,
08:06:30.913,-2,-1,-1,-1,-1,-2,0,-2,
08:06:30.924,-1,-2,-1,0,-1,-2,1,-3,
08:06:30.925,0,0,0,-2,0,0,-1,0,
08:06:30.934,-1,0,-1,-3,-2,1,-3,-2,
08:06:30.934,1,-1,1,-1,-2,-1,0,-1,
08:06:30.948,0,-1,-2,-1,-1,-2,-1,-1,
08:06:30.949,-1,-2,-3,-1,-1,-1,-2,0,
08:06:30.950,-3,-1,-2,-1,0,-1,-1,0,
08:06:30.951,-1,-2,-1,-2,-1,-1,-1,-1,
08:06:30.971,-1,-1,-2,-1,-1,-1,0,-1,
08:06:30.971,0,-1,0,-1,-3,-1,0,0,
08:06:30.973,-1,-1,0,0,0,-1,-3,-3,
08:06:30.973,0,-2,-2,0,1,-1,0,-2,
08:06:30.984,1,-1,0,-1,-1,0,-1,1,
08:06:30.985,-1,0,-1,-1,-2,1,-1,-3,
08:06:30.999,0,-1,-1,-1,-1,1,0,-1,
08:06:31.000,-1,0,1,-2,-2,0,-1,0,
08:06:31.008,0,-1,-2,0,1,-1,-2,-1,
08:06:31.009,-1,-1,-2,0,-2,-2,-1,0,
08:06:31.011,-1,-1,-2,-2,-2,-1,0,-1,
08:06:31.012,-1,-1,-1,-1,-2,0,-2,-2,
08:06:31.031,-1,-2,0,0,1,-1,0,-2,
08:06:31.031,0,-2,0,0,0,-3,0,-2,
08:06:31.032,-1,-1,-1,0,-1,-2,-1,-1,
08:06:31.033,0,-2,0,0,0,-2,-1,0,
08:06:31.044,-1,-1,-1,-2,-1,1,-1,0,
08:06:31.045,-1,2,-2,-1,-1,-1,-2,-1,
08:06:31.053,0,0,-1,-1,-1,-1,0,0,
08:06:31.054,-2,-1,-1,0,0,-2,-1,-1,
08:06:31.068,-1,-3,0,-1,-1,-2,0,-2,
08:06:31.069,-2,-1,1,-2,-3,-1,0,-1,
08:06:31.070,0,-2,0,-1,-2,-1,-1,0,
08:06:31.070,-2,0,-3,0,-2,1,-2,1,
08:06:31.091,-1,-1,-2,-2,-2,1,-2,0,
08:06:31.091,-1,-2,-1,0,0,-2,-1,-1,
08:06:31.092,0,-1,0,1,-2,-1,-2,-1,
08:06:31.093,-1,-1,1,0,0,0,-1,-2,
08:06:31.104,-1,0,-2,0,-1,0,-1,-1,
08:06:31.105,-2,-2,-1,-1,-1,1,-2,-1,
08:06:31.113,-1,-1,-1,-1,-1,-1,0,0,
08:06:31.114,1,-2,0,-2,-2,-3,-1,0,
08:06:31.128,0,1,0,-1,1,-2,-1,-1,
08:06:31.129,0,-1,-1,-1,-1,0,-1,-2,
08:06:31.130,-1,1,-1,-1,-1,-2,-1,-1,
08:06:31.130,0,-2,-1,-2,-1,0,-1,-1,
08:06:31.151,0,-2,1,0,-1,-1,-1,-2,
08:06:31.151,1,-1,-3,0,-1,-2,1,0,
08:06:31.152,0,-3,-2,-1,1,1,0,-1,
08:06:31.153,0,-3,-1,-1,0,-1,0,-1,
08:06:31.164,-1,-2,0,-2,-2,-1,-1,-1,
08:06:31.165,-2,0,-1,-3,0,-1,0,-2,
08:06:31.173,0,-1,-1,-2,0,-1,-1,-1,
08:06:31.174,-1,0,-2,0,-1,0,-1,-1,
08:06:31.188,1,-1,0,-1,-1,-2,-1,-1,
08:06:31.189,1,-2,-1,-1,-1,0,-1,0,
08:06:31.190,-1,-1,-2,-3,-1,-1,0,0,
08:06:31.190,-3,-2,1,-2,-2,0,-1,-1,
08:06:31.210,-1,-1,-1,-1,-2,-1,0,2,
08:06:31.211,0,1,-1,-2,-1,0,-2,1,
08:06:31.212,-2,-1,-1,0,0,0,0,-2,
08:06:31.213,1,-1,-1,-1,0,-1,-1,0,
08:06:31.224,-2,-1,-1,-1,0,-1,0,0,
08:06:31.225,-2,0,1,1,-2,0,-1,0,
08:06:31.233,1,1,-1,0,-1,-1,1,-1,
08:06:31.234,-2,1,-2,0,-1,-1,-3,0,
08:06:31.248,-2,0,-3,0,-1,0,-1,-1,
08:06:31.249,0,-2,-1,0,0,-2,-1,-3,
08:06:31.250,-2,0,0,-2,-1,0,-1,-1,
08:06:31.250,-2,0,-2,-2,-2,0,0,0,
08:06:31.270,0,-2,-1,-2,-1,-1,0,-2,
08:06:31.271,-1,-2,-1,-1,0,-3,-1,1,
08:06:31.272,-1,-1,0,1,-1,0,-1,0,
08:06:31.272,-1,-1,-3,-2,-1,-2,0,0,
08:06:31.293,-1,-2,0,0,0,0,-2,0,
08:06:31.294,-2,-2,-1,0,0,-1,0,-1,
08:06:31.295,0,0,-1,-1,0,-2,-2,-2,
08:06:31.296,0,-3,1,-1,-2,-1,-1,1,
08:06:31.308,-1,0,-1,-2,-1,-1,-1,-3,
08:06:31.310,-2,0,0,-1,-2,-1,-2,-2,
08:06:31.310,-2,-1,-1,0,-2,0,0,-1,
08:06:31.311,0,-3,-2,-1,0,-1,0,0,
08:06:31.330,-2,-1,1,0,-1,0,0,-1,
08:06:31.331,0,-2,-2,-2,0,0,-2,0,
08:06:31.332,-3,-2,0,-1,-1,-1,-2,0,
08:06:31.333,-2,-2,-2,-1,0,-2,-1,-1,
08:06:31.353,0,-1,-1,0,-1,-2,0,-2,
08:06:31.354,-1,0,-2,0,-2,-2,-2,-1,
08:06:31.355,-2,0,-1,-2,-2,0,-1,-1,
08:06:31.355,0,-1,1,0,-1,-1,1,-1,
08:06:31.368,-1,-1,-1,0,-2,-2,-2,0,
08:06:31.369,-1,0,-1,-1,-2,0,-1,-2,
08:06:31.369,-1,-2,-1,-1,-1,-3,0,-2,
08:06:31.370,1,-1,0,-2,0,0,-1,-2,
08:06:31.390,0,-1,-1,0,-1,0,0,-2,
08:06:31.391,-1,-1,-1,-1,-2,1,0,-2,
08:06:31.392,0,-3,-1,-2,0,-2,-3,0,
08:06:31.393,0,-1,-1,-1,0,0,-2,-1,
08:06:31.413,-1,-2,0,0,0,-1,-1,0,
08:06:31.413,-1,-1,-3,0,1,0,0,-1,
08:06:31.414,-3,0,-1,0,-1,-1,-1,-1,
08:06:31.416,0,-1,-2,-1,-1,-1,-1,-2,
08:06:31.427,1,1,-2,-1,-2,0,-4,-1,
08:06:31.428,0,0,0,-2,-1,-1,-1,0,
08:06:31.434,0,-1,-1,0,-2,-1,-1,0,
08:06:31.435,-2,-1,2,-1,0,0,-1,-2,
08:06:31.450,-1,-2,-2,-4,-1,-1,1,0,
08:06:31.451,-2,-2,0,-2,-1,-2,0,-2,
08:06:31.453,-1,-1,-2,-2,-1,0,0,0,
08:06:31.453,-3,0,-1,0,-1,-1,0,1,
08:06:31.473,-4,0,-2,-1,0,-1,0,-1,
08:06:31.473,-4,2,-2,-1,-2,-1,2,-1,
08:06:31.474,-1,-1,-1,-1,-1,-2,-2,-1,
08:06:31.475,0,-1,-2,0,-1,-1,0,0,
08:06:31.487,0,0,0,-2,-2,-1,-2,-1,
08:06:31.488,1,-1,-2,0,-1,-1,0,-2,
08:06:31.494,0,0,-2,0,-1,0,-1,-1,
08:06:31.495,0,-1,0,-1,-1,0,-1,0,
08:06:31.510,-1,1,-2,-1,0,-2,0,-1,
08:06:31.511,0,-1,0,-1,0,-2,-1,-1,
08:06:31.512,-1,-2,-1,-1,-1,0,0,-1,
08:06:31.512,-2,-2,-1,-1,-2,-1,-1,-1,
08:06:31.533,0,1,0,-1,-1,0,0,-1,
08:06:31.533,0,1,0,0,0,0,-2,0,
08:06:31.534,1,-3,-1,-1,-1,-2,0,0,
08:06:31.535,-1,-1,-2,-1,0,-1,-1,-2,
08:06:31.547,-1,-2,-1,-1,-2,0,-1,-1,
08:06:31.548,0,-1,-1,-1,0,0,-1,0,
08:06:31.554,-2,-2,-1,-1,1,0,0,-1,
08:06:31.554,0,0,-1,0,-1,-2,-1,0,
08:06:31.570,-1,-3,-2,-1,-1,-3,-2,0,
08:06:31.571,-2,-2,0,-1,-1,-1,-3,-3,
08:06:31.572,-1,0,-1,-3,-1,-2,0,-2,
08:06:31.572,-2,0,-2,-2,-1,-3,-3,-2,
08:06:31.593,0,0,-1,-1,0,1,-3,-1,
08:06:31.593,0,0,-1,0,-2,-2,0,0,
08:06:31.594,0,-1,0,0,-2,0,-1,-2,
08:06:31.595,2,-1,-1,-2,-1,-1,0,-1,
08:06:31.607,-1,0,0,-1,-1,0,0,0,
08:06:31.608,-2,-1,-2,-2,-1,-1,0,0,
08:06:31.614,1,-2,0,-1,0,-1,-1,-3,
08:06:31.614,-1,-2,0,-2,-1,-1,1,0,
08:06:31.630,-1,-1,-1,-1,-2,0,-1,1,
08:06:31.631,-3,-3,0,-1,0,-1,-1,-1,
08:06:31.632,1,1,-3,-1,-1,0,-1,-1,
08:06:31.633,0,-1,0,1,-2,-2,-2,-2,
08:06:31.653,-2,-3,-2,0,0,0,-1,0,
08:06:31.654,-1,2,0,-2,-2,0,-1,-1,
08:06:31.655,-3,-2,0,-2,-1,-1,-1,-1,
08:06:31.655,-2,-3,-2,1,0,-2,-2,-1,
08:06:31.667,0,-2,-3,-1,-3,-1,0,-2,
08:06:31.668,0,-1,-1,-2,-1,-1,-1,-1,
08:06:31.674,-1,-2,-3,-1,-1,0,-2,0,
08:06:31.674,-1,-1,-1,-2,0,-1,-2,-1,
08:06:31.690,-1,-3,0,0,-1,0,-2,-2,
08:06:31.691,-1,-3,-1,-2,0,-2,0,-2,
08:06:31.692,0,-1,1,0,-2,1,0,0,
08:06:31.692,-2,-1,-2,-2,-2,-2,1,0,
08:06:31.713,0,2,-1,-1,0,-2,-2,-1,
08:06:31.713,0,-1,-3,-1,0,-1,-1,-2,
08:06:31.714,-1,-1,-1,-2,0,0,0,1,
08:06:31.715,-1,-1,0,1,0,1,-1,-2,
08:06:31.727,-3,0,-1,-1,0,-1,-2,0,
08:06:31.728,-1,-1,-2,0,-1,1,-1,-1,
08:06:31.734,0,0,-2,0,-1,-1,0,0,
08:06:31.734,0,-2,1,-1,-1,-1,0,-2,
08:06:31.750,-1,-1,0,-1,0,-3,0,-1,
08:06:31.751,-1,-1,-1,0,-2,-1,-1,-1,
08:06:31.752,-2,-2,-1,-1,0,-2,-2,-2,
08:06:31.754,0,-1,0,-1,-1,0,1,0,
08:06:31.773,0,0,0,0,0,0,0,-1,
08:06:31.773,-1,-1,-1,-2,-1,-1,-1,-1,
08:06:31.774,-1,1,-2,-1,0,0,-1,-1,
08:06:31.775,0,0,-2,-2,-1,0,-2,-1,
08:06:31.786,0,0,-2,-3,-1,0,0,0,
08:06:31.787,-2,0,0,-1,-2,0,-3,0,
08:06:31.795,-1,0,0,-2,-1,-2,-1,-3,
08:06:31.796,-2,-2,-1,0,0,-3,-1,-1,
08:06:31.810,-1,-1,-2,0,0,-2,0,-1,
08:06:31.811,0,0,0,-1,-1,1,0,2,
08:06:31.812,-2,-2,-1,0,0,-1,-3,1,
08:06:31.813,-1,1,0,-1,0,0,1,-1,
08:06:31.833,-2,-1,-1,-1,-1,-1,1,0,
08:06:31.834,-2,-3,-1,1,0,-2,-1,-2,
08:06:31.835,0,-1,-1,-1,-1,-1,-1,0,
08:06:31.836,-1,-1,-1,-1,-1,-1,-1,-2,
08:06:31.846,-1,-1,-2,0,-1,-1,-2,-2,
08:06:31.847,-1,-1,-2,0,-1,-2,-1,0,
08:06:31.855,1,-1,1,-1,-2,0,1,-2,
08:06:31.856,-1,-1,-1,-3,-2,-1,0,0,
08:06:31.870,-1,-1,0,-1,-1,0,0,-1,
08:06:31.871,-1,-2,-1,-2,-2,0,1,-2,
08:06:31.872,-1,-2,-2,1,1,-1,-1,0,
08:06:31.872,-2,-2,0,-2,-2,1,0,-1,
08:06:31.893,0,-1,-1,-1,-2,0,-1,-1,
08:06:31.893,-1,0,1,0,-1,-1,-1,-1,
08:06:31.894,0,-1,-2,-1,-2,-2,0,-1,
08:06:31.894,-1,-3,-2,-1,-1,-2,-2,-1,
08:06:31.906,-1,-1,0,0,-1,-3,-2,0,
08:06:31.907,0,1,-3,-1,-1,0,0,-2,
08:06:31.915,-2,0,-1,-1,-1,-1,0,-1,
08:06:31.916,0,-1,-2,-1,0,-1,-2,-1,
08:06:31.930,0,-1,-1,-1,1,0,-1,-1,
08:06:31.931,0,0,-2,0,0,-1,0,-1,
08:06:31.932,0,-1,0,-3,-1,-1,0,0,
08:06:31.933,0,-1,0,0,-2,0,-2,-1,
08:06:31.952,-1,-2,-2,-1,0,-2,1,1,
08:06:31.953,0,-3,-2,-1,-1,-2,-3,-2,
08:06:31.955,-2,0,0,0,-1,-1,0,-1,
08:06:31.955,-1,-1,-1,0,-1,-2,0,0,
08:06:31.966,-2,-1,-2,-1,-1,0,-1,-1,
08:06:31.967,0,-1,-1,0,1,-1,0,0,
08:06:31.975,-1,-2,-2,0,-1,-1,0,-1,
08:06:31.976,-2,-1,-1,-1,-3,0,-1,-2,
08:06:31.990,1,1,-1,-1,-1,-2,-1,-2,
08:06:31.991,0,-2,-2,-1,0,-1,-1,0,
08:06:31.992,0,-1,-1,0,0,0,-2,-2,
08:06:31.993,-1,-2,-2,-1,0,0,0,0,
08:06:32.012,-2,-2,-1,-1,-2,0,-1,-1,
08:06:32.013,-2,-2,0,-2,-1,1,-1,-1,
08:06:32.014,-1,-1,-1,-1,-1,-2,0,0,
08:06:32.015,0,-2,-2,-1,-3,-2,0,0,
08:06:32.026,1,-2,-1,-1,-1,0,-1,-1,
08:06:32.027,-2,0,-1,-2,-2,-1,-1,-1,
08:06:32.035,-2,-2,-1,-1,-1,2,-1,0,
08:06:32.037,-1,-1,-1,-1,0,1,-1,-1,
08:06:32.051,1,-2,-2,1,0,-1,-2,-2,
08:06:32.051,-2,-1,-1,0,-1,-2,0,-2,
08:06:32.052,0,-3,-1,0,-2,-3,-2,-1,
08:06:32.053,0,-1,-2,-1,1,-2,-3,-1,
08:06:32.073,-1,-1,0,-1,-2,0,-1,-1,
08:06:32.074,0,-1,-1,-1,1,0,0,-2,
08:06:32.075,0,-2,-2,-2,0,-1,-2,-1,
08:06:32.076,-1,-1,-1,-2,-2,-1,-2,-1,
08:06:32.087,-1,-1,0,0,-1,-4,-1,-2,
08:06:32.088,-2,0,-1,0,-2,-2,-1,1,
08:06:32.096,-1,0,-1,-2,-1,-1,0,0,
08:06:32.096,-2,-1,-1,0,0,0,0,0,
08:06:32.111,-1,-1,0,-2,0,0,0,-1,
08:06:32.112,-1,-2,-3,-2,-2,-1,0,-1,
08:06:32.113,-1,-2,-2,0,-1,0,-3,-2,
08:06:32.113,1,0,-1,0,-1,0,0,0,
08:06:32.133,-1,0,-1,-1,0,-1,-2,0,
08:06:32.134,1,-1,-1,-1,-3,-1,-1,0,
08:06:32.135,0,-1,-1,-1,-1,0,0,-4,
08:06:32.136,0,-1,1,0,0,0,-1,0,
08:06:32.147,-3,-1,-2,-1,0,-2,1,1,
08:06:32.147,0,-1,-1,-2,0,-3,0,0,
08:06:32.156,-2,-1,-1,0,-2,-1,-1,-1,
08:06:32.157,0,0,-1,-1,-2,-1,0,-2,
08:06:32.170,0,0,-2,-1,-1,0,-1,-1,
08:06:32.171,-2,0,-1,-2,0,0,0,0,
08:06:32.177,0,-1,1,-1,-2,0,-1,0,
08:06:32.177,-1,-3,-1,-2,0,-1,-1,0,
08:06:32.193,0,-1,-1,0,-1,0,-1,-1,
08:06:32.194,-1,-1,0,-1,-1,0,-3,-2,
08:06:32.195,-1,0,-2,-2,-1,-1,-1,-1,
08:06:32.196,-1,0,-1,-2,-1,0,-2,0,
08:06:32.216,-1,-1,-1,-1,-1,-1,-2,-1,
08:06:32.216,0,1,1,1,-1,-1,-2,-2,
08:06:32.217,0,-4,-2,-1,-1,0,0,0,
08:06:32.218,-2,-1,-2,-1,-1,-1,1,-1,
08:06:32.231,0,1,-3,-1,-1,-1,0,-1,
08:06:32.231,-2,-1,1,-2,-2,-1,0,1,
08:06:32.232,-1,-2,0,-1,0,1,-1,1,
08:06:32.233,-1,-1,-1,1,-1,-2,-2,-1,
08:06:32.253,1,-1,0,0,-1,1,-1,0,
08:06:32.254,-1,-2,-2,0,-1,-1,1,-2,
08:06:32.255,0,0,-1,-1,-1,-2,-1,-2,
08:06:32.255,-1,0,-1,-1,-2,-1,-1,-2,
08:06:32.276,-2,-1,-1,0,0,-3,0,-1,
08:06:32.276,0,-1,-2,0,-2,-1,-2,-1,
08:06:32.277,0,0,0,-1,-1,-2,0,0,
08:06:32.278,-2,-1,-1,-1,1,0,1,-1,
08:06:32.291,-1,0,1,0,-1,0,-3,-1,
08:06:32.291,0,-2,-1,-2,-1,-1,-1,-1,
08:06:32.292,0,-3,-1,-1,0,-1,-1,1,
08:06:32.293,-1,0,-1,-1,-1,-1,0,-1,
08:06:32.313,0,0,-3,-1,0,-1,0,-2,
08:06:32.314,-2,0,-2,-1,-1,0,-1,1,
08:06:32.315,-1,1,-1,0,-1,0,-1,0,
08:06:32.315,1,-2,-1,0,1,-2,0,-1,
08:06:32.336,-3,0,1,-2,-1,-2,-1,-2,
08:06:32.336,-1,1,-2,-1,0,0,0,-1,
08:06:32.337,-2,0,-1,1,0,-1,0,-1,
08:06:32.338,-1,-2,0,-1,-1,-1,-3,1,
08:06:32.350,0,0,1,0,-2,-2,-1,-1,
08:06:32.351,-1,-1,-2,-1,-1,-1,-3,-2,
08:06:32.357,-1,0,1,-2,-2,0,2,-1,
08:06:32.358,0,-1,-3,-1,-1,0,-1,-1,
08:06:32.373,0,-2,-2,0,-1,-2,0,0,
08:06:32.374,-1,-3,0,0,1,-1,-1,-3,
08:06:32.375,-1,-2,-3,-2,-2,-2,-1,-2,
08:06:32.376,0,1,1,-1,-2,-1,-1,0,
08:06:32.396,-1,-1,-1,-1,-1,0,-1,-2,
08:06:32.396,0,-2,0,0,-1,-1,0,0,
08:06:32.397,-1,-3,-2,1,-1,0,-2,1,
08:06:32.398,-2,-1,-1,-1,-1,0,-2,-2,
08:06:32.410,-2,-1,-1,-2,-1,0,1,-1,
08:06:32.411,1,0,0,-1,-2,-2,-1,-2,
08:06:32.417,-2,-1,0,-1,0,0,0,-1,
08:06:32.417,-1,-2,-2,0,-3,-2,-1,0,
08:06:32.433,-1,0,-1,-1,-2,-1,0,0,
08:06:32.434,-1,-1,-3,-2,-2,-2,-1,-1,
08:06:32.435,0,1,0,-1,-3,0,-1,-1,
08:06:32.436,-1,0,-1,-1,0,-2,-1,-2,
08:06:32.456,-1,0,-1,-2,-1,0,-1,0,
08:06:32.456,-2,0,-1,0,-1,-1,-1,-1,
08:06:32.458,0,-3,-1,-3,1,-1,-1,-2,
08:06:32.459,-1,-1,0,-2,-1,-1,0,-2,
08:06:32.470,-2,-2,-1,-2,-1,-3,-1,-2,
08:06:32.471,-2,0,-2,-1,-1,-4,-1,1,
08:06:32.477,-1,0,0,0,0,-2,0,1,
08:06:32.477,0,-1,-2,0,0,-2,-1,-1,
08:06:32.493,-1,-1,-2,0,-2,0,0,0,
08:06:32.494,0,-1,-1,1,1,1,-1,-1,
08:06:32.495,0,-2,-1,0,-3,-2,0,-1,
08:06:32.495,-1,-1,1,-1,-2,0,-2,0,
08:06:32.516,-1,-1,-1,0,-1,0,0,0,
08:06:32.517,-1,-1,0,-1,-1,-1,-1,-1,
08:06:32.518,-2,1,-2,0,-1,0,-1,-1,
08:06:32.519,-1,0,-2,-1,-1,0,-1,-2,
08:06:32.530,0,0,-1,-2,-1,-1,-2,1,
08:06:32.530,-1,-2,-1,-2,-1,-1,-1,-1,
08:06:32.537,-1,0,-1,0,0,0,-1,-2,
08:06:32.537,-1,1,-1,-1,-1,-1,-1,1,
08:06:32.553,1,0,-1,-1,-1,0,-1,-2,
08:06:32.554,-1,-1,-2,-2,-2,-1,-1,0,
08:06:32.555,-1,-2,0,0,-1,-2,-2,0,
08:06:32.555,-1,-1,-1,-3,-1,-1,0,-1,
08:06:32.583,0,-1,-2,-1,-1,-1,-1,-1,
08:06:32.584,-1,-2,1,0,-2,0,-2,0,
08:06:32.585,-2,-2,-1,-1,0,0,-1,-3,
08:06:32.585,0,-1,-1,0,0,-1,0,-2,
08:06:32.590,-2,-1,-2,0,0,-2,-1,-1,
08:06:32.590,-2,-2,-2,-1,-1,0,1,0,
08:06:32.597,-1,-2,-2,-2,1,-2,-2,-1,
08:06:32.597,0,0,-1,-1,-1,-2,-2,-2,
08:06:32.613,-2,0,-1,-2,-1,-1,-3,-2,
08:06:32.614,-1,-2,0,0,0,-2,0,-2,
08:06:32.615,0,-2,-1,-3,-2,-2,0,-1,
08:06:32.615,0,-2,-1,-1,0,-2,0,0,
08:06:32.636,-2,0,0,-2,-2,-1,-1,1,
08:06:32.636,-1,0,-1,0,-1,-1,-2,-1,
08:06:32.637,-2,-2,-1,-1,-1,0,1,-1,
08:06:32.638,-2,0,-1,-1,-1,0,-1,-1,
08:06:32.650,0,-1,0,0,-2,1,0,-1,
08:06:32.650,0,-1,-1,-1,-1,-1,-1,-1,
08:06:32.657,1,0,0,0,0,0,-2,-1,
08:06:32.657,-1,-1,-1,-1,-2,0,0,0,
08:06:32.673,-1,-1,0,-2,-1,-2,-1,-2,
08:06:32.674,0,0,0,-1,1,0,-1,-1,
08:06:32.675,-1,0,-1,0,-2,-2,0,0,
08:06:32.676,-1,-1,0,-1,-1,0,-2,-1,
08:06:32.695,0,-3,0,-1,0,0,0,-1,
08:06:32.696,0,-3,-1,-1,-2,-1,-1,-1,
08:06:32.697,-1,-3,-1,1,0,-2,0,0,
08:06:32.698,-1,-1,-1,1,0,-1,-1,-1,
08:06:32.709,-2,1,-2,-1,-1,-1,0,-1,
08:06:32.710,-2,-2,0,-2,0,-2,-2,-1,
08:06:32.718,-2,1,-2,-1,-1,1,-1,-2,
08:06:32.719,-1,-1,-1,0,-2,-1,0,0,
08:06:32.733,-1,-1,-1,-1,0,0,0,0,
08:06:32.734,1,-1,0,-1,-1,-2,-1,1,
08:06:32.734,0,-1,0,0,-1,-2,-2,-1,
08:06:32.735,1,0,-2,-1,-1,0,0,-1,
08:06:32.755,-1,0,-3,-1,0,-1,0,0,
08:06:32.756,1,-1,-1,-1,-1,-1,0,-3,
08:06:32.757,-1,0,-2,-1,0,0,0,-1,
08:06:32.758,-2,0,-2,0,0,-1,-2,-1,
08:06:32.769,0,-1,-1,0,-1,-2,-1,-1,
08:06:32.770,-1,0,-1,-1,-1,-1,-2,1,
08:06:32.778,-1,-2,-1,-2,-1,-2,0,0,
08:06:32.779,-1,1,0,-1,-1,1,-1,0,
08:06:32.793,-1,-1,-1,1,-2,1,-1,-1,
08:06:32.794,-1,0,-1,-1,-1,-1,-1,0,
08:06:32.795,0,-2,0,0,0,-1,-2,-2,
08:06:32.795,-2,-2,-1,-1,-1,0,-2,-3,
08:06:32.815,-1,1,0,-2,-1,-1,-2,-2,
08:06:32.816,-2,-1,-3,-2,-1,-1,0,-2,
08:06:32.817,1,-2,-2,-1,-2,-1,-1,-1,
08:06:32.818,0,-2,-1,-2,-2,-1,-1,0,
08:06:32.829,0,-2,-1,-2,-1,0,0,0,
08:06:32.830,-1,-3,-2,0,0,0,-1,0,
08:06:32.838,-1,0,1,-2,-1,0,0,-1,
08:06:32.839,-1,-1,-2,-1,-1,-2,0,-1,
08:06:32.853,0,-1,0,-1,-2,-1,0,0,
08:06:32.853,-1,-1,0,-1,-2,0,-2,0,
08:06:32.855,-1,0,-1,-1,-1,0,-1,0,
08:06:32.855,-1,0,-2,-1,-2,-1,0,-2,
08:06:32.875,0,-2,-2,-1,-1,-2,0,-1,
08:06:32.876,0,-1,0,-1,-2,0,1,-2,
08:06:32.877,-1,0,0,-1,-2,-2,-1,0,
08:06:32.878,-2,-1,-1,0,0,-1,-2,-1,
08:06:32.889,-2,-1,-1,0,1,1,-2,1,
08:06:32.890,1,-1,-1,-1,-1,1,-1,0,
08:06:32.898,0,-1,-1,-1,-1,-2,-1,-2,
08:06:32.898,-1,-2,-1,-1,1,-2,-2,-2,
08:06:32.913,-1,1,-1,-1,-1,-1,0,-1,
08:06:32.913,-2,-2,0,-1,0,-1,-1,-2,
08:06:32.914,-2,1,0,-1,2,-1,-1,-1,
08:06:32.916,0,0,-1,-1,-1,-1,-1,1,
08:06:32.943,-1,-1,-1,-2,-1,-1,-1,-2,
08:06:32.943,-2,-1,-1,0,-1,-2,-2,-3,
08:06:32.944,0,-2,-1,0,-3,-1,0,0,
08:06:32.945,-2,0,0,-2,-2,-1,-1,-1,
08:06:32.949,0,-2,0,0,0,-1,-2,1,
08:06:32.950,-2,0,-2,-1,-2,-2,-2,-1,
08:06:32.958,-2,1,-1,-1,-1,1,-1,-1,
08:06:32.958,-1,-2,-1,0,-2,0,0,0,
08:06:32.973,-3,-1,-1,-2,-1,0,0,-3,
08:06:32.973,1,-2,-1,0,1,0,-1,-2,
08:06:32.974,-2,-3,1,-1,-1,0,0,-1,
08:06:32.975,0,0,-1,-1,-1,-2,2,0,
08:06:32.995,1,0,-2,0,-1,1,-1,-1,
08:06:32.996,0,0,-1,-2,-1,-2,-1,-1,
08:06:32.997,0,1,-2,0,-1,-2,-3,-1,
08:06:32.997,-1,-1,1,0,-1,-2,-3,0,
08:06:33.009,-1,-2,-2,1,0,-1,-2,0,
08:06:33.010,-2,-2,0,0,-1,-2,1,-1,
08:06:33.018,-1,-3,-6,-2,-1,-1,2,-1,
08:06:33.019,1,0,0,0,-1,1,-1,1,
08:06:33.033,0,3,5,2,0,0,0,0,
08:06:33.034,-3,-6,-5,-4,-5,-2,-1,-2,
08:06:33.035,0,1,1,-2,-1,-1,-1,1,
08:06:33.036,3,8,3,1,-2,-1,-1,1,
08:06:33.055,-2,-23,-2,0,0,1,1,-1,
08:06:33.056,-1,13,10,-1,-5,-2,-3,-1,
08:06:33.057,-2,-1,-13,-6,0,0,-2,-3,
08:06:33.057,5,-4,9,8,4,6,1,2,
08:06:33.078,-8,6,-9,-6,-5,-6,-4,-5,
08:06:33.078,-2,-5,-5,-14,-6,0,1,1,
08:06:33.079,12,8,10,29,7,3,2,4,
08:06:33.080,-14,6,2,-3,9,-1,-5,-6,
08:06:33.092,16,18,-1,15,8,3,4,8,
08:06:33.093,-8,-18,-29,-7,15,6,-3,-2,
08:06:33.099,-18,-38,-32,-28,-11,-7,-5,-5,
08:06:33.099,-16,-24,-6,-15,-24,-21,-17,-10,
08:06:33.115,-1,-6,1,11,-4,0,6,2,
08:06:33.116,-4,6,15,-16,-17,-7,-3,-2,
08:06:33.117,14,18,20,11,21,14,-3,4,
08:06:33.117,2,-5,6,2,20,-6,0,3,
08:06:33.129,-10,-7,-20,-35,-40,6,3,-8,
08:06:33.130,5,-2,-3,25,-23,-22,-11,-2,
08:06:33.138,11,13,15,22,7,2,4,6,
08:06:33.138,7,-2,-12,-5,29,20,17,8,
08:06:33.152,-11,-10,-15,-17,15,-4,-16,-7,
08:06:33.153,-4,-5,24,43,5,-18,-14,-7,
08:06:33.159,-17,-14,-31,-63,-63,-26,-6,-10,
08:06:33.159,15,24,45,46,20,19,9,2,
08:06:33.175,7,-2,-17,7,22,12,7,2,
08:06:33.176,-14,-2,21,-44,-6,14,-3,-10,
08:06:33.177,-9,-12,-39,-13,-21,-22,-13,-10,
08:06:33.178,1,0,9,-42,-54,-18,-6,-2,
08:06:33.198,3,9,33,48,46,-2,-6,-1,
08:06:33.198,1,-2,-11,8,8,13,17,3,
08:06:33.199,13,29,32,23,24,24,13,8,
08:06:33.200,-11,-35,-63,15,29,2,-3,-3,
08:06:33.212,-10,-10,-24,-39,-38,-17,-8,-6,
08:06:33.213,4,10,12,18,-5,-13,-5,0,
08:06:33.219,-8,-8,-13,-34,-30,-14,-7,-6,
08:06:33.219,-1,10,-9,-30,-33,-15,-9,-2,
08:06:33.235,2,4,17,12,1,-12,-6,3,
08:06:33.236,8,7,-8,-2,23,27,19,9,
08:06:33.237,13,14,35,30,40,28,15,12,
08:06:33.237,3,-6,-2,44,24,8,8,5,
08:06:33.258,-6,7,22,5,12,20,9,-6,
08:06:33.258,-9,-22,-44,-40,-52,-37,-22,-4,
08:06:33.259,-6,-9,2,-15,-15,-9,-4,-6,
08:06:33.260,-1,5,-3,1,21,2,7,3,
08:06:33.271,2,2,-10,-20,-15,-5,3,0,
08:06:33.272,3,-10,-11,-19,-25,-21,-4,3,
08:06:33.280,0,0,27,19,15,8,3,1,
08:06:33.281,-9,2,-6,25,22,18,-14,-13,
08:06:33.295,1,-2,6,-1,4,11,10,5,
08:06:33.297,5,8,-16,-36,-21,18,11,8,
08:06:33.298,-5,3,12,40,43,-6,-10,-3,
08:06:33.298,3,8,-31,-16,-18,-22,-12,-1,
08:06:33.318,2,11,54,12,-16,-14,7,1,
08:06:33.318,-7,-6,-10,-1,-5,16,6,-10,
08:06:33.319,-4,-9,-23,-31,-31,-18,-27,-4,
08:06:33.320,0,7,18,-11,4,21,1,-1,
08:06:33.331,3,-8,-17,43,43,4,3,6,
08:06:33.332,-3,-9,-2,-13,-4,-6,-1,-3,
08:06:33.340,8,5,3,-2,-3,-10,11,6,
08:06:33.341,-6,-8,9,-7,-22,6,7,-4,
08:06:33.355,-1,-7,-8,-11,-15,-8,-10,-1,
08:06:33.356,-1,-2,7,0,4,-18,-6,-3,
08:06:33.357,2,5,-3,8,15,45,18,3,
08:06:33.357,4,1,6,9,19,-4,-1,6,
08:06:33.378,-1,-1,2,-17,-22,-27,-15,-4,
08:06:33.379,-1,0,6,29,24,-17,-10,-4,
08:06:33.379,-13,-13,-3,-11,-18,32,-5,-16,
08:06:33.380,2,-2,-26,-61,-58,-15,0,2,
08:06:33.391,2,1,0,22,48,52,34,6,
08:06:33.392,0,-2,-6,19,20,-28,-28,1,
08:06:33.400,-1,8,40,11,-7,-34,-10,-1,
08:06:33.401,-1,2,11,32,20,12,15,1,
08:06:33.416,-3,-1,-10,-22,-36,-23,-28,-6,
08:06:33.417,1,-5,-28,-18,-9,9,11,3,
08:06:33.418,0,-2,15,-6,2,3,10,2,
08:06:33.419,1,3,-4,-1,-2,-50,2,7,
08:06:33.437,-10,-7,-9,-27,-33,18,-6,-14,
08:06:33.438,8,14,26,1,11,46,17,5,
08:06:33.439,5,-9,-13,73,96,13,-14,4,
08:06:33.440,-1,-5,11,-15,-20,-3,2,1,
08:06:33.451,2,-5,-9,20,10,-25,-16,0,
08:06:33.452,-5,-6,3,-8,-20,11,7,-7,
08:06:33.460,-4,-10,-13,-22,-26,-27,2,-1,
08:06:33.461,1,-11,-3,-8,-12,-14,-12,-3,
08:06:33.475,0,-7,-4,-17,-19,-19,-8,0,
08:06:33.476,-1,-16,-10,-9,-3,8,6,3,
08:06:33.476,1,3,24,0,-9,0,26,4,
08:06:33.477,0,-2,-8,11,14,26,-10,-5,
08:06:33.498,6,16,20,-2,2,9,8,6,
08:06:33.498,5,24,20,31,31,-14,8,6,
08:06:33.499,1,-10,-44,-2,12,-10,6,1,
08:06:33.500,-8,-11,4,-10,-24,-9,-18,-8,
08:06:33.511,0,6,9,13,18,8,12,-1,
08:06:33.512,1,-14,-23,1,9,-7,2,4,
08:06:33.520,-3,-2,24,-12,-33,-54,-22,-6,
08:06:33.521,-5,-23,-18,-19,-14,37,15,-2,
08:06:33.535,4,-10,-5,16,24,27,6,6,
08:06:33.536,0,-11,20,10,14,14,-4,-2,
08:06:33.537,1,-39,-35,3,10,10,-7,1,
08:06:33.537,2,14,51,16,4,-49,-17,0,
08:06:33.558,-8,-19,-17,-26,-28,14,17,-7,
08:06:33.559,1,17,10,-1,-4,14,-8,0,
08:06:33.560,-13,14,-41,-12,-5,12,-6,-8,
08:06:33.561,0,28,-2,-11,-7,-8,6,0,
08:06:33.572,-3,48,1,-1,-13,-16,-7,-3,
08:06:33.573,0,44,8,3,1,4,9,1,
08:06:33.588,1,-18,-4,-2,0,-4,-8,-1,
08:06:33.589,-5,-100,-27,-3,10,6,-11,-4,
08:06:33.596,-1,53,11,-2,0,34,15,-1,
08:06:33.597,0,38,17,7,-1,-14,-1,-1,
08:06:33.599,-3,9,-28,-30,-27,5,-9,-4,
08:06:33.600,-2,-42,6,-9,-16,-5,4,0,
08:06:33.618,7,-91,36,20,25,-15,6,4,
08:06:33.619,-14,79,-21,-1,-2,18,-7,-8,
08:06:33.620,0,67,21,8,15,3,1,4,
08:06:33.621,-3,62,-20,2,2,10,1,-3,
08:06:33.632,1,-27,-43,-20,-15,-38,-22,2,
08:06:33.633,6,-30,70,23,8,20,12,0,
08:06:33.641,0,-36,8,2,-4,0,7,-2,
08:06:33.642,0,-10,-12,-11,-15,-40,-15,-2,
08:06:33.656,-4,3,9,8,8,17,4,-2,
08:06:33.656,-6,-71,-49,-2,13,-13,-6,-4,
08:06:33.658,-1,-20,-1,-17,-28,-8,-10,-3,
08:06:33.658,9,26,29,32,36,22,8,6,
08:06:33.678,-1,20,-10,-20,-23,-17,-4,-1,
08:06:33.679,-4,-37,-13,8,15,-2,-6,-5,
08:06:33.680,3,-27,-6,-4,-6,-4,0,-1,
08:06:33.681,-8,16,-11,-10,-3,0,3,-4,
08:06:33.692,-1,23,1,14,10,-4,-2,2,
08:06:33.693,2,-35,-8,-4,-4,-2,-18,-1,
08:06:33.701,6,-19,10,9,16,11,9,7,
08:06:33.702,2,1,-24,-8,-8,12,5,-4,
08:06:33.716,-12,7,12,4,-2,-2,-9,-7,
08:06:33.717,3,-17,11,-11,-21,-38,-12,1,
08:06:33.717,0,0,7,3,-4,-1,11,-1,
08:06:33.718,-1,-10,-19,-4,6,10,-2,-3,
08:06:33.738,0,-10,-6,-5,-5,-23,-18,-5,
08:06:33.739,5,0,2,-11,-15,-2,11,5,
08:06:33.740,-6,-9,16,22,19,-6,-4,0,
08:06:33.741,1,7,11,-6,-3,27,-5,-3,
08:06:33.752,3,-21,-58,-17,2,-6,-13,1,
08:06:33.753,-3,-5,29,5,-4,6,6,-4,
08:06:33.761,2,4,14,-1,-9,6,-2,-3,
08:06:33.761,3,18,-2,9,-7,-35,-6,5,
08:06:33.776,-6,24,18,-8,-9,1,2,-2,
08:06:33.776,-5,-35,-54,-9,16,5,6,2,
08:06:33.777,-5,-23,-1,-7,-4,0,-5,-3,
08:06:33.778,2,15,-6,2,2,4,4,0,
08:06:33.798,2,3,26,7,-4,0,3,0,
08:06:33.799,-8,-18,-8,-9,-4,-5,-3,-4,
08:06:33.800,0,-5,-21,-13,-16,-13,13,1,
08:06:33.800,-2,6,15,1,4,3,12,2,
08:06:33.812,-1,-16,20,19,22,29,-8,-2,
08:06:33.812,3,-5,15,2,-6,-7,8,0,
08:06:33.821,-3,6,-25,-9,-2,11,-8,1,
08:06:33.821,1,12,-11,0,7,20,5,0,
08:06:33.835,7,9,7,1,-1,-17,1,4,
08:06:33.836,2,-7,0,10,6,0,-6,0,
08:06:33.842,-2,-9,-8,-9,-4,1,-2,-3,
08:06:33.842,-4,10,33,-7,-16,-15,-4,-3,
08:06:33.858,-8,-16,-46,-7,2,2,1,-1,
08:06:33.859,-4,-8,13,5,-2,-12,-3,-4,
08:06:33.864,5,-18,-3,-2,-2,-7,-9,0,
08:06:33.865,-3,-18,-14,-3,9,22,10,-2,
08:06:33.872,1,19,22,11,0,-5,3,-2,
08:06:33.873,0,-5,-15,-12,-9,-2,-9,0,
08:06:33.881,0,4,10,4,5,-13,8,1,
08:06:33.881,-6,-10,11,14,10,18,-4,-6,
08:06:33.895,-3,2,-22,-19,-16,-24,7,0,
08:06:33.896,3,-23,-22,-3,7,17,3,2,
08:06:33.909,-5,7,34,2,-8,0,-6,-6,
08:06:33.910,-2,4,10,2,-11,-30,-2,-4,
08:06:33.918,-2,-9,-11,-10,-9,-6,-3,-1,
08:06:33.920,0,-14,5,9,13,11,4,0,
08:06:33.921,0,-8,-18,-4,4,0,8,2,
08:06:33.921,0,-5,-6,2,6,-4,0,-3,
08:06:33.932,2,-3,23,0,-15,-13,-16,-4,
08:06:33.932,-1,13,4,-4,-4,-20,-8,-1,
08:06:33.941,4,0,0,4,-1,11,13,3,
08:06:33.941,-3,-8,-8,6,8,15,-14,-3,
08:06:33.955,-1,3,-3,-4,2,7,4,0,
08:06:33.956,-4,9,4,1,2,25,4,-1,
08:06:33.962,-3,13,0,-2,-12,-27,-11,-2,
08:06:33.962,2,25,15,6,-3,1,-3,1,
08:06:33.978,4,0,-21,-6,4,26,17,2,
08:06:33.979,-4,-6,-8,-2,-2,-6,-5,-1,
08:06:33.980,-3,43,47,1,-13,-5,-14,-5,
08:06:33.981,-3,-2,-14,2,4,3,3,1,
08:06:33.992,-2,4,-10,-4,6,21,0,-1,
08:06:33.993,6,28,4,1,-15,-34,-5,4,
08:06:34.001,-4,-20,-8,1,11,33,3,-5,
08:06:34.001,1,1,-19,-9,-14,-10,-1,2,
08:06:34.015,-9,24,20,2,6,-13,-2,-5,
08:06:34.016,2,-2,-4,-1,1,18,-10,-1,
08:06:34.022,0,-2,-9,-3,-5,-4,1,1,
08:06:34.022,7,-6,3,1,2,-6,10,5,
08:06:34.038,0,-3,0,-1,-4,-12,-7,-2,
08:06:34.039,-1,11,8,0,-1,-9,4,1,
08:06:34.040,2,-7,1,8,14,14,1,1,
08:06:34.041,0,-22,-23,-17,-12,-11,-2,0,
08:06:34.052,4,2,4,9,4,-1,-7,1,
08:06:34.052,-11,4,27,-2,-7,-7,4,-7,
08:06:34.061,-2,-2,-14,-5,-4,-8,-3,-1,
08:06:34.061,0,-4,-3,4,9,14,6,2,
08:06:34.076,0,-12,-8,-5,-3,-5,4,-1,
08:06:34.076,5,9,-6,-1,4,4,-3,1,
08:06:34.077,-5,-22,-13,0,5,20,16,0,
08:06:34.078,-4,7,8,-9,-12,-8,-16,-5,
08:06:34.098,3,14,6,10,1,-3,3,3,
08:06:34.099,1,-28,-10,2,15,8,-9,-1,
08:06:34.100,-1,-1,-7,-12,-15,-14,-9,-3,
08:06:34.101,-2,-2,15,7,9,3,4,0,
08:06:34.121,-3,-1,11,3,-2,-6,-1,-3,
08:06:34.121,2,-4,-15,-6,-1,3,1,0,
08:06:34.122,-1,-12,-21,-9,1,-3,1,1,
08:06:34.123,1,4,9,-5,-15,-13,-5,2,
08:06:34.136,1,-21,-5,4,9,17,4,1,
08:06:34.136,-5,-13,-13,-6,-7,-25,0,-2,
08:06:34.137,-1,-6,17,8,5,19,-3,-5,
08:06:34.138,-1,-21,-37,-16,-9,-11,-12,-4,
08:06:34.158,-1,1,19,-2,-13,-9,-8,0,
08:06:34.159,1,-3,6,9,11,15,5,2,
08:06:34.160,-2,-12,-12,-8,-3,-13,-5,-1,
08:06:34.161,3,1,8,7,2,-11,6,0,
08:06:34.188,-5,-12,4,-9,-6,5,-7,-2,
08:06:34.189,-1,-6,-11,-4,-4,-4,-4,-1,
08:06:34.190,-1,19,18,3,-5,-10,-2,0,
08:06:34.190,-1,-5,-5,0,6,12,10,-1,
08:06:34.195,5,-10,-23,-2,1,-14,1,2,
08:06:34.196,-2,11,23,-5,-6,11,4,0,
08:06:34.197,-1,3,-3,2,-2,-7,-8,0,
08:06:34.198,-1,1,2,8,13,5,-6,-2,
08:06:34.218,-4,-1,-5,-6,-8,-1,14,0,
08:06:34.219,4,-2,-1,14,13,9,-6,1,
08:06:34.219,-3,-20,-20,-12,-5,-12,-8,-5,
08:06:34.220,-3,18,27,6,-6,4,0,-2,
08:06:34.241,0,1,-6,-5,-6,-6,-7,-3,
08:06:34.241,1,5,7,-3,-3,2,6,0,
08:06:34.242,3,1,1,2,5,15,4,1,
08:06:34.243,-2,-5,-9,-2,-1,-16,-6,1,
08:06:34.255,-3,-37,-6,-1,5,24,3,-2,
08:06:34.255,-2,-9,-8,-6,-12,-11,1,-2,
08:06:34.262,3,-13,-15,-6,4,3,-4,2,
08:06:34.262,-5,21,51,15,-10,-21,-12,-8,
08:06:34.278,-12,-23,-55,-25,-10,2,-11,-8,
08:06:34.279,1,-11,-1,3,4,-2,2,-1,
08:06:34.281,-2,-5,-6,3,3,-6,4,1,
08:06:34.281,2,-5,-7,0,4,12,-1,1,
08:06:34.300,5,14,24,17,11,-7,-3,2,
08:06:34.301,-5,-5,-20,-15,-10,-8,4,-3,
08:06:34.302,-3,1,6,5,1,1,-8,1,
08:06:34.303,-3,1,1,-9,-5,3,7,0,
08:06:34.315,1,-36,-1,4,1,-5,4,1,
08:06:34.315,-3,-9,0,8,5,-15,-15,-1,
08:06:34.322,0,5,-4,-5,-2,30,20,-1,
08:06:34.323,-3,-5,1,-7,-8,7,-10,-5,
08:06:34.338,-3,8,-3,9,14,10,7,1,
08:06:34.339,0,11,0,-1,2,10,-3,0,
08:06:34.339,3,9,15,15,19,-8,4,3,
08:06:34.340,1,-12,-29,-9,-2,-10,-5,0,
08:06:34.360,2,27,29,-7,-12,6,3,-1,
08:06:34.361,-7,6,-9,-7,-13,-19,-1,-2,
08:06:34.362,0,15,13,3,-6,0,-5,-2,
08:06:34.363,1,5,-10,-7,1,1,10,4,
08:06:34.375,3,-6,9,11,7,1,8,-2,
08:06:34.375,-8,-8,-10,-17,-15,-14,-4,-4,
08:06:34.382,1,2,-11,5,2,1,-1,0,
08:06:34.382,-1,-9,-1,4,7,11,14,2,
08:06:34.398,1,19,0,-6,-8,-15,-16,0,
08:06:34.398,-1,4,-7,0,-1,9,3,-3,
08:06:34.399,-1,15,14,1,-1,-7,3,0,
08:06:34.400,0,-9,1,5,6,-5,-13,-2,
08:06:34.420,-2,-12,-3,0,-5,-13,-3,-1,
08:06:34.421,-2,-2,-22,-8,3,31,12,-3,
08:06:34.422,-1,11,14,0,-4,-12,-9,-2,
08:06:34.422,5,-1,0,6,-2,-3,5,3,
08:06:34.435,-2,2,18,3,2,5,-3,-2,
08:06:34.435,3,0,11,6,3,-1,-1,4,
08:06:34.442,-9,-12,-17,-21,-21,-18,-3,-4,
08:06:34.442,4,-1,-11,7,18,24,8,5,
08:06:34.458,3,-8,12,10,1,0,0,-1,
08:06:34.458,0,1,5,-1,-2,-14,-7,-2,
08:06:34.459,-4,-15,-14,-12,-15,-8,-4,-3,
08:06:34.460,2,21,27,13,1,-8,-2,2,
08:06:34.480,0,3,-11,-1,5,14,5,1,
08:06:34.481,2,-5,10,6,3,14,-7,-2,
08:06:34.482,-2,-6,-10,-5,-7,-4,-3,-2,
08:06:34.483,-6,-21,-19,-21,-15,-7,-2,-5,
08:06:34.495,2,2,6,10,9,-1,-1,0,
08:06:34.495,-1,2,2,3,0,-3,0,-1,
08:06:34.501,0,-3,-12,-5,-2,6,-1,0,
08:06:34.502,-6,-13,2,-7,-11,-10,-6,-5,
08:06:34.518,-1,-13,-35,-15,-7,-5,2,0,
08:06:34.519,-1,18,16,11,6,2,1,0,
08:06:34.519,1,3,7,15,26,8,2,1,
08:06:34.521,-2,7,3,-2,-4,-1,-3,-1,
08:06:34.540,-4,-11,-19,-7,-7,-6,-5,-1,
08:06:34.542,1,-11,0,-5,-7,-1,-1,1,
08:06:34.543,0,8,1,-5,-9,-3,-5,0,
08:06:34.543,-5,-7,-7,-6,-2,0,0,-3,
08:06:34.555,-4,-17,-2,-5,-5,-1,-1,-2,
08:06:34.555,1,2,6,3,3,0,1,-1,
08:06:34.561,1,-12,7,11,9,2,2,1,
08:06:34.562,-4,-13,-1,1,-2,-1,-2,-2,
08:06:34.578,-4,9,-9,-10,-7,-4,-3,0,
08:06:34.578,5,-15,15,12,4,0,2,1,
08:06:34.579,-6,-5,-26,-19,-9,-3,-3,-4,
08:06:34.580,0,15,0,0,1,0,-3,-3,
08:06:34.600,-7,-17,1,1,-1,-4,-3,-2,
08:06:34.601,0,-4,-6,0,2,0,-1,0,
08:06:34.602,0,-7,10,7,1,0,0,-1,
08:06:34.603,1,-18,-4,-1,-1,1,1,-2,
08:06:34.614,-2,-1,3,1,1,0,0,-2,
08:06:34.615,5,-3,-4,-6,-3,0,0,4,
08:06:34.623,6,-3,4,3,-2,1,0,1,
08:06:34.624,-12,-12,-4,0,1,1,-3,-7,
08:06:34.638,-1,-16,5,1,0,-2,-1,-1,
08:06:34.639,-6,-18,10,7,-1,0,1,2,
08:06:34.644,0,1,-18,-20,-3,0,-2,-2,
08:06:34.645,3,-4,16,1,-1,-3,0,2,
08:06:34.660,3,-6,-7,-8,-1,2,1,-2,
08:06:34.661,-5,1,15,7,4,2,0,-5,
08:06:34.662,11,20,4,0,0,1,2,4,
08:06:34.662,0,14,4,1,-2,-2,0,0,
08:06:34.674,1,-1,-10,-7,-6,-4,-1,2,
08:06:34.674,5,18,-9,-4,-2,-2,0,7,
08:06:34.683,0,-48,2,10,2,0,-1,-3,
08:06:34.683,-9,-60,-18,-9,-2,-2,-3,-9,
08:06:34.698,3,-22,11,8,3,-3,-5,-4,
08:06:34.699,-5,-28,-28,-15,-7,-4,-3,-7,
08:06:34.702,-4,-39,6,5,-1,-2,0,0,
08:06:34.703,11,-36,-4,1,0,-1,-1,3,
08:06:34.720,-10,-19,-8,-6,-9,-6,-2,0,
08:06:34.721,-9,8,-3,-14,-12,-1,-3,-8,
08:06:34.722,5,26,6,17,17,6,2,2,
08:06:34.722,3,25,-1,3,7,2,0,6,
08:06:34.734,4,13,-3,0,3,-1,-2,-6,
08:06:34.735,2,24,-8,-10,-13,-7,-6,-3,
08:06:34.743,-11,39,-3,-6,-11,-7,-4,-2,
08:06:34.743,10,59,0,6,11,6,6,12,
08:06:34.757,-4,47,1,0,-6,-3,-5,-10,
08:06:34.758,-12,46,-6,9,8,1,-1,-7,
08:06:34.764,-2,50,-7,-11,-6,1,-2,-4,
08:06:34.764,1,26,-2,-3,-5,-3,-1,3,
08:06:34.780,-4,24,-3,1,2,0,0,4,
08:06:34.781,10,-9,6,2,1,3,3,5,
08:06:34.782,-9,-22,3,4,3,0,-1,-4,
08:06:34.782,-13,-36,-7,-7,-8,-6,-1,-3,
08:06:34.794,12,-28,2,0,-2,-2,-3,3,
08:06:34.794,-9,-14,-4,-5,-5,-5,-3,-8,
08:06:34.803,-2,15,4,6,4,0,-1,0,
08:06:34.803,-9,27,-6,-8,-8,-4,-5,-7,
08:06:34.817,-1,27,1,-1,-1,-2,-1,2,
08:06:34.818,3,9,1,7,9,2,3,-2,
08:06:34.824,-3,1,0,-1,-4,-3,-2,-2,
08:06:34.824,1,-22,2,4,2,3,2,-6,
08:06:34.840,6,-30,2,3,1,0,1,15,
08:06:34.841,11,-30,-6,-12,-10,-6,0,7,
08:06:34.842,4,-27,3,1,-2,-1,-1,0,
08:06:34.842,0,-13,-1,-1,0,-1,-3,-8,
08:06:34.854,-28,-25,-6,-6,-6,-2,-4,-13,
08:06:34.855,-8,-17,-2,0,-1,-5,-3,-2,
08:06:34.863,-1,-16,-3,-1,-3,0,-3,-3,
08:06:34.863,6,-9,1,2,2,1,4,3,
08:06:34.877,12,0,0,-5,-5,0,1,5,
08:06:34.877,-2,-7,-1,4,1,-1,1,0,
08:06:34.884,-4,-11,-2,-8,-9,-10,-9,-3,
08:06:34.884,-2,-2,4,4,-1,3,2,1,
08:06:34.900,9,0,3,12,11,3,2,7,
08:06:34.901,-16,-2,-6,-11,-10,-6,-4,-9,
08:06:34.903,-1,5,-2,-9,1,1,0,0,
08:06:34.904,2,1,1,15,11,-1,0,3,
08:06:34.914,1,10,-3,-4,-6,-3,-3,-5,
08:06:34.914,12,-2,-1,2,1,-5,-4,3,
08:06:34.923,-8,-7,-6,-7,-10,-5,-5,-2,
08:06:34.923,-12,-2,-3,-9,-9,-4,-2,-4,
08:06:34.937,-4,0,-1,-6,-4,5,4,-4,
08:06:34.938,7,9,4,16,19,8,3,3,
08:06:34.944,-6,0,0,0,-3,-7,0,-6,
08:06:34.946,0,-5,-3,-7,-9,-1,-1,1,
08:06:34.960,-2,3,3,10,12,-2,-4,-1,
08:06:34.961,-3,3,-1,-8,-10,-3,-3,0,
08:06:34.962,6,4,2,5,8,3,2,5,
08:06:34.962,23,-6,-6,-6,-4,-2,-2,4,
08:06:34.974,-7,10,-4,-9,-10,-7,-3,-6,
08:06:34.974,-3,33,4,2,2,1,1,1,
08:06:34.982,-2,-6,-4,-4,-5,-5,-5,-10,
08:06:34.983,-34,-27,-7,-7,-6,-3,-4,-7,
08:06:34.997,4,-9,-2,0,3,4,1,0,
08:06:34.997,6,5,2,4,1,4,3,0,
08:06:35.004,9,9,1,-1,0,3,2,4,
08:06:35.004,1,-2,-2,5,7,0,-4,-2,
08:06:35.020,-6,-10,-1,0,0,-1,0,-3,
08:06:35.021,-2,-3,1,2,4,-3,-1,0,
08:06:35.022,-1,-8,-3,-8,-14,-7,0,7,
08:06:35.023,-6,-1,-3,-7,-7,-5,-4,-8,
08:06:35.034,9,6,1,7,5,2,2,4,
08:06:35.034,-13,-9,-4,-7,0,1,-3,-4,
08:06:35.043,8,1,-1,4,2,3,3,7,
08:06:35.044,-52,-63,-9,-4,-2,-5,-7,-16,
08:06:35.058,-2,7,1,-2,-4,-2,-2,-8,
08:06:35.058,-5,-8,-4,-3,-7,0,-1,-2,
08:06:35.065,3,8,0,-1,1,-1,-2,-1,
08:06:35.065,5,8,0,-2,-3,-4,-1,1,
08:06:35.081,-6,-8,-3,-6,-4,-1,-1,-2,
08:06:35.082,2,0,1,1,2,0,1,2,
08:06:35.082,-10,-9,-2,1,-2,-2,0,-3,
08:06:35.083,6,22,1,-4,-4,-3,-2,4,
08:06:35.103,18,4,1,0,4,2,3,7,
08:06:35.104,-4,4,-1,-1,0,-3,-1,-3,
08:06:35.106,5,6,2,7,8,4,1,2,
08:06:35.106,12,13,3,-1,1,3,2,2,
08:06:35.118,-9,-2,-6,-7,-8,-5,-3,-5,
08:06:35.119,-4,-3,-6,-10,-12,-4,-2,-2,
08:06:35.124,-4,5,5,6,5,3,4,0,
08:06:35.125,7,7,-1,3,5,-1,-2,-2,
08:06:35.141,-13,-4,-1,1,0,-2,-1,-2,
08:06:35.141,7,-2,-2,-2,-2,0,-2,2,
08:06:35.143,-14,-18,-7,-7,-7,-2,-3,-6,
08:06:35.144,15,20,3,1,0,2,2,7,
08:06:35.163,-4,-2,-3,-2,0,0,0,-2,
08:06:35.165,-3,2,-1,-1,-1,-2,-2,-1,
08:06:35.166,9,4,0,-1,-2,0,-1,3,
08:06:35.166,-2,-1,0,1,1,-3,-2,-3,
08:06:35.177,0,-5,-3,-2,0,1,1,-2,
08:06:35.178,-4,-4,3,1,1,0,3,0,
08:06:35.186,-7,-2,-3,0,2,-3,-2,0,
08:06:35.186,3,3,-1,0,0,0,-1,0,
08:06:35.201,0,0,1,-3,-3,-6,-4,0,
08:06:35.201,3,-2,-2,1,0,2,3,-1,
08:06:35.202,8,-1,-2,0,-3,0,-1,-1,
08:06:35.203,0,3,0,-2,-3,-1,-2,-2,
08:06:35.231,3,1,0,-1,-1,0,-1,1,
08:06:35.231,-10,-5,-2,-1,-1,-2,-4,-8,
08:06:35.233,-9,1,1,-2,-2,-3,0,-3,
08:06:35.234,0,1,-1,2,-1,-1,-1,1,
08:06:35.237,-6,-1,-1,-1,0,-1,-1,-6,
08:06:35.238,3,-2,-1,1,0,0,1,3,
08:06:35.246,-2,4,3,0,0,0,0,-1,
08:06:35.247,0,2,1,-2,-2,0,2,-1,
08:06:35.260,2,-2,0,0,-1,-3,0,2,
08:06:35.261,2,0,-3,-2,-1,0,-1,-2,
08:06:35.262,3,1,-2,-1,-3,-1,-1,-3,
08:06:35.262,2,2,-2,-1,0,0,0,3,
08:06:35.283,4,-2,-3,-1,-2,-1,-2,2,
08:06:35.283,-19,-6,-4,-2,-1,-3,-2,-7,
08:06:35.284,-6,0,-1,-1,0,-1,-1,-1,
08:06:35.284,-2,1,-2,-1,-1,-2,-3,0,
08:06:35.305,-2,1,0,1,-1,-2,0,1,
08:06:35.306,10,2,1,-1,-1,0,-1,7,
08:06:35.307,-5,-2,-2,-1,-1,-3,-2,-7,
08:06:35.307,-7,-2,-2,-1,-2,-2,0,-6,
08:06:35.320,-1,-1,-2,-2,0,-1,-1,-2,
08:06:35.320,7,0,0,-2,0,0,0,3,
08:06:35.321,1,0,-2,-2,-2,-1,-2,2,
08:06:35.322,2,-1,-2,1,-1,1,1,-1,
08:06:35.343,-2,-1,-1,-1,-2,1,-1,0,
08:06:35.343,-1,1,-1,0,0,-1,-1,-3,
08:06:35.344,-2,-1,1,-1,0,0,0,-3,
08:06:35.344,4,-1,-1,-3,0,-2,0,6,
08:06:35.365,-8,-3,-2,-1,-1,-2,-2,-5,
08:06:35.366,-1,-1,-3,-1,-1,-4,-1,-1,
08:06:35.367,-1,1,0,-2,-1,-2,-1,-1,
08:06:35.367,8,0,2,-1,-1,-1,-1,1,
08:06:35.380,-4,-1,0,0,1,-1,0,-1,
08:06:35.382,5,0,-1,-1,-2,-2,-2,0,
08:06:35.382,-7,0,-2,1,1,-1,0,-6,
08:06:35.383,-1,1,0,-1,0,0,-2,-2,
08:06:35.402,-2,-6,-1,1,0,0,0,0,
08:06:35.437,1,-5,0,-1,-3,-1,0,4,
08:06:35.438,7,-6,-2,-1,-1,-3,-1,1,
08:06:35.438,0,-2,-1,0,-1,0,0,-1,
08:06:35.439,-5,3,-1,-1,-2,-2,-3,-2,
08:06:35.439,-1,4,-1,0,-1,0,0,-3,
08:06:35.440,-4,-2,0,0,-1,-1,-3,-3,
08:06:35.440,-4,1,-1,-1,-1,1,-2,-3,
08:06:35.442,0,0,-2,-2,-1,-3,0,1,
08:06:35.442,6,1,-1,-1,-2,-2,0,1,
08:06:35.442,-5,-2,-1,-2,-1,-1,-2,0,
08:06:35.443,-3,-2,1,-1,-1,-3,0,-2,
08:06:35.462,2,1,-1,0,0,0,0,1,
08:06:35.463,1,-2,-1,0,0,-2,-1,1,
08:06:35.464,2,-1,-3,-1,-1,-1,-1,-1,
08:06:35.464,-4,-2,-2,-1,-3,0,-2,-2,
08:06:35.485,-2,-3,-2,-1,-1,-1,-1,-2,
08:06:35.486,1,1,0,-1,-1,-1,-2,0,
08:06:35.486,2,-2,-2,0,-2,0,0,-1,
08:06:35.487,-2,-2,0,-1,-2,1,-1,-3,
08:06:35.500,1,1,-1,-1,-1,0,0,0,
08:06:35.501,-14,-2,0,-1,-2,-1,-1,-6,
08:06:35.502,0,0,0,-1,1,-1,-2,0,
08:06:35.502,0,-1,0,-1,-1,-1,-1,-3,
08:06:35.522,3,1,-1,-1,1,-1,1,4,
08:06:35.523,-1,0,0,-1,2,-1,1,0,
08:06:35.524,3,-1,0,0,-1,0,0,4,
08:06:35.525,-1,-1,-2,0,-1,-1,0,-5,
08:06:35.545,1,2,0,-1,-4,0,-2,0,
08:06:35.546,-1,-1,-1,0,-2,0,0,-1,
08:06:35.546,-1,1,-1,-1,-1,-2,-1,-3,
08:06:35.546,-1,2,-2,-1,-1,0,0,2,
08:06:35.560,-1,1,-1,-1,0,-1,0,-2,
08:06:35.561,0,1,-2,-1,-2,-2,-4,-2,
08:06:35.561,1,1,-1,-1,0,0,-1,-1,
08:06:35.561,-4,-3,-3,-2,0,-1,1,0,
08:06:35.582,5,1,-1,1,0,-1,-2,-1,
08:06:35.583,-4,-2,-1,-1,0,0,-3,-2,
08:06:35.584,-1,-1,-1,-1,-2,-2,-1,-1,
08:06:35.584,1,-1,0,-2,0,-1,-1,2,
08:06:35.605,1,0,-1,-3,0,0,1,-2,
08:06:35.605,1,1,-1,0,-1,-1,-1,2,
08:06:35.606,0,-1,0,-2,-1,-2,-2,-1,
08:06:35.606,-2,-1,-3,0,-1,-1,0,0,
08:06:35.620,-3,0,0,-1,0,-2,-2,-1,
08:06:35.620,-2,-1,-2,-2,-1,0,-1,-5,
08:06:35.621,-2,-2,-1,-1,-1,0,1,0,
08:06:35.621,0,-1,-3,-2,-1,0,-1,-2,
08:06:35.642,0,-1,-1,-1,-1,0,-1,-1,
08:06:35.643,4,0,-1,-1,0,0,1,3,
08:06:35.644,-4,-2,0,-2,-2,0,-1,-4,
08:06:35.645,1,-2,-1,-1,1,-3,-1,-1,
08:06:35.665,-3,-1,-1,-1,-2,-1,-2,-1,
08:06:35.665,-2,-1,0,-1,1,-2,-1,1,
08:06:35.666,0,1,-2,0,-1,-1,-1,1,
08:06:35.667,0,-1,1,0,0,-1,-2,0,
08:06:35.680,2,-1,-1,-2,1,-1,0,0,
08:06:35.680,-4,-1,-2,-1,-2,-2,-2,-6,
08:06:35.681,2,-1,-2,1,-1,-1,-1,0,
08:06:35.681,-2,-1,0,-1,-2,-1,-1,-3,
08:06:35.702,-1,-1,-1,0,-2,0,1,0,
08:06:35.703,1,-1,-1,0,0,1,-1,0,
08:06:35.703,-3,-1,0,0,0,0,0,-2,
08:06:35.704,1,-1,-1,-2,-1,-1,-1,0,
08:06:35.717,-7,0,0,0,-1,0,2,-4,
08:06:35.717,8,0,-1,-3,-3,-3,-3,2,
08:06:35.725,-9,-1,-1,-1,-1,-2,-2,0,
08:06:35.726,0,-3,1,-2,-1,0,-1,3,
08:06:35.740,-2,-2,-1,0,0,0,0,-2,
08:06:35.740,-3,-2,-1,-2,-1,0,-1,-4,
08:06:35.741,3,0,-1,-2,0,0,0,-1,
08:06:35.742,0,-1,-2,-1,-1,-1,-1,-1,
08:06:35.762,-2,0,0,0,0,-3,-3,-2,
08:06:35.763,0,0,-1,0,1,0,0,0,
08:06:35.765,1,-1,0,-2,-2,0,-1,0,
08:06:35.765,-4,0,-2,-1,-1,0,-2,-2,
08:06:35.785,0,0,0,-1,0,-2,-1,-2,
08:06:35.786,-2,0,-1,-1,-1,0,0,0,
08:06:35.787,2,0,0,-1,-1,-1,-2,2,
08:06:35.787,-1,-1,-1,-1,-1,-1,0,-2,
08:06:35.800,0,-1,-1,-1,-1,0,-1,2,
08:06:35.800,-1,-1,-1,-2,-2,0,0,-1,
08:06:35.801,-1,-3,-1,-2,0,-1,-1,-2,
08:06:35.801,0,-1,1,-1,-1,-2,-2,-1,
08:06:35.822,-1,-3,-2,-1,-2,0,-1,-5,
08:06:35.823,-2,-2,0,-1,-1,-3,-1,-2,
08:06:35.823,0,0,0,-2,-1,-1,-1,0,
08:06:35.824,-2,-1,0,-1,0,-1,0,-4,
08:06:35.837,0,-2,-1,0,0,-1,-1,0,
08:06:35.837,-3,-2,0,0,-2,0,-1,-2,
08:06:35.845,-2,-1,-1,0,-1,-1,0,-1,
08:06:35.845,1,-1,0,0,-1,0,0,1,
08:06:35.860,-1,2,-2,-1,-1,-2,-1,2,
08:06:35.860,2,0,-1,0,0,-1,0,2,
08:06:35.861,-2,-2,-1,1,-1,0,-2,-1,
08:06:35.861,-2,-1,-2,-2,-2,-2,-1,0,
08:06:35.882,0,1,0,1,0,1,-3,-1,
08:06:35.883,-3,-3,-1,-1,0,-1,-1,-2,
08:06:35.883,2,-2,-1,0,0,-2,1,-1,
08:06:35.884,1,-2,-3,-1,0,-1,1,-2,
08:06:35.896,-13,-3,0,-1,-1,-2,-3,-5,
08:06:35.897,1,2,-1,-1,1,-1,2,1,
08:06:35.905,-3,-3,-1,-1,0,0,-1,-4,
08:06:35.905,-1,-1,-1,0,-1,-2,-2,1,
08:06:35.920,2,-1,-2,-1,-1,-1,0,-1,
08:06:35.920,-1,1,1,-1,-1,-1,-2,-2,
08:06:35.921,0,-3,-1,-1,-1,0,-1,1,
08:06:35.921,-2,1,0,-2,-1,-1,0,-2,
08:06:35.942,2,0,0,-1,-2,-1,0,0,
08:06:35.943,-2,-2,0,-2,-1,0,-2,0,
08:06:35.944,-2,2,-2,-1,-1,-2,-2,-2,
08:06:35.944,-2,-3,0,0,-1,1,-2,-1,
08:06:35.956,2,1,-2,-2,-2,-1,-1,1,
08:06:35.957,-3,-2,-1,-1,0,0,-2,-3,
08:06:35.965,0,0,1,-1,0,-1,1,0,
08:06:35.965,2,-1,0,-1,-2,-1,1,1,
08:06:35.980,-11,-3,0,-1,-1,0,-1,-5,
08:06:35.980,-2,0,-1,0,-1,0,-1,0,
08:06:35.981,1,0,-2,0,-1,-1,-1,-1,
08:06:35.983,-1,-2,1,-1,0,0,-3,-1,
08:06:36.002,3,1,0,-1,-2,-2,1,2,
08:06:36.003,0,-2,-2,-1,-3,-1,0,-1,
08:06:36.003,-1,-1,-1,0,-2,-1,0,0,
08:06:36.004,-3,-2,-3,-1,-1,-2,-1,1,
08:06:36.025,1,-1,-1,-1,-1,0,-1,1,
08:06:36.026,1,1,1,-1,0,-1,-2,-1,
08:06:36.027,1,1,-1,-1,-1,0,-1,-1,
08:06:36.027,-1,-1,-1,-2,-1,-1,-2,-2,
08:06:36.040,0,-1,-2,0,2,-1,-1,0,
08:06:36.040,-2,-2,-2,-1,-1,-1,1,0,
08:06:36.041,5,0,-1,-1,-1,0,-2,2,
08:06:36.042,-10,-3,-2,0,-2,-2,-1,-7,
08:06:36.062,-2,0,-1,0,1,1,-1,-1,
08:06:36.063,-2,-2,-2,-1,-1,0,-2,-3,
08:06:36.063,-2,-2,-1,-2,-1,0,-1,1,
08:06:36.064,1,-1,-1,-1,-1,-1,0,0,
08:06:36.085,1,-1,-1,-2,-2,-2,0,0,
08:06:36.086,-2,0,-1,-2,0,-2,-1,-4,
08:06:36.086,-4,-2,0,-2,0,-3,-3,-3,
08:06:36.087,0,0,-1,0,-1,-2,1,1,
08:06:36.100,2,-1,0,-1,-2,0,0,-1,
08:06:36.100,1,-1,-1,-2,-3,-1,2,1,
08:06:36.101,0,-1,0,1,-1,-1,-1,0,
08:06:36.101,1,-1,-2,-1,0,0,0,2,
08:06:36.122,2,0,0,-1,-1,-1,-1,-1,
08:06:36.123,-2,-3,-1,0,0,0,-3,-1,
08:06:36.123,-2,-1,-3,-2,-1,-1,0,-2,
08:06:36.124,8,-2,1,-1,-1,-2,0,1,
08:06:36.145,-5,-1,-1,-1,-2,-2,-1,-2,
08:06:36.146,0,0,1,-2,1,-2,0,0,
08:06:36.147,-1,-1,1,0,0,-1,0,0,
08:06:36.147,-1,0,-3,-1,0,-1,0,-1,
08:06:36.159,0,-2,-2,-1,-1,1,-1,0,
08:06:36.160,-2,1,0,-1,-2,-2,-2,-1,
08:06:36.161,-2,-1,0,1,-1,-1,0,0,
08:06:36.162,-1,0,0,-1,-1,0,-1,-2,
08:06:36.182,2,0,1,1,0,1,0,3,
08:06:36.183,-4,-2,-1,-2,-1,0,-2,-1,
08:06:36.183,1,-1,0,-2,0,0,0,-1,
08:06:36.183,-2,0,0,0,-2,0,-1,-3,
08:06:36.205,-2,0,-1,-1,0,-2,0,-1,
08:06:36.206,2,0,-2,0,-2,-2,0,-1,
08:06:36.206,-1,-3,-3,-3,-2,-1,-1,-1,
08:06:36.207,-5,-2,0,0,-1,-3,-1,-1,
08:06:36.219,5,-1,-1,0,0,-1,-1,1,
08:06:36.220,-10,-1,-1,-1,-3,-2,-3,-3,
08:06:36.221,-1,-1,-1,-1,-1,0,-1,-3,
08:06:36.222,-1,-1,-2,0,-2,-1,-2,-2,
08:06:36.242,0,1,-1,0,-1,-1,0,-1,
08:06:36.243,1,0,-1,-1,-1,-1,-2,-1,
08:06:36.243,-2,-3,-1,0,-1,-2,0,-2,
08:06:36.244,-3,-1,0,-2,0,-1,-2,1,
08:06:36.265,-3,0,-1,-2,-1,-1,-2,-2,
08:06:36.266,3,1,-1,-1,-1,1,0,2,
08:06:36.266,-4,0,-2,1,-1,0,0,-1,
08:06:36.267,2,0,1,-1,-1,-1,-1,0,
08:06:36.279,-2,-2,-2,-1,-1,-2,0,0,
08:06:36.280,2,0,-2,-1,-1,-1,0,0,
08:06:36.281,0,-1,0,-1,0,0,-1,0,
08:06:36.282,0,-1,-2,-2,-1,0,1,-2,
08:06:36.302,-3,-1,0,0,-2,0,-1,-1,
08:06:36.302,5,-2,1,0,0,-3,0,-1,
08:06:36.303,-11,-3,-2,0,-1,0,-2,-5,
08:06:36.303,-2,0,0,-2,0,2,-1,-2,
08:06:36.325,-1,-2,0,-2,-1,-2,0,-5,
08:06:36.326,0,1,-1,0,0,0,1,5,
08:06:36.326,4,-2,-2,-3,-2,-2,-1,1,
08:06:36.327,-5,1,-1,0,0,-1,-2,-5,
08:06:36.339,-4,-3,-2,0,0,0,-1,-1,
08:06:36.340,-3,-1,0,0,-1,-2,-1,-2,
08:06:36.341,5,0,-1,0,0,-1,-2,3,
08:06:36.341,-4,-2,-2,-1,0,-3,-2,-3,
08:06:36.362,1,0,0,-3,-1,-2,0,-1,
08:06:36.362,-1,0,-2,-1,-2,0,-1,-2,
08:06:36.363,-1,0,0,-2,1,-1,0,-1,
08:06:36.364,1,-2,-1,-1,0,-2,0,2,
08:06:36.385,-1,0,-1,-1,-1,-1,-2,-1,
08:06:36.386,-2,-3,0,2,0,0,0,-2,
08:06:36.387,-1,-1,0,-1,-1,-2,0,0,
08:06:36.387,6,-1,-1,0,-3,-2,-2,1,
08:06:36.399,-2,-1,-1,-1,-2,-1,-1,0,
08:06:36.401,-3,-3,-3,0,-2,0,0,0,
08:06:36.401,0,0,-2,0,-1,-2,-2,-2,
08:06:36.402,1,0,1,-1,-1,-1,1,-1,
08:06:36.422,0,0,1,-1,0,-1,-1,1,
08:06:36.422,-2,1,3,0,-1,-2,0,-3,
08:06:36.423,-1,1,-2,0,-1,-1,-2,0,
08:06:36.423,0,2,-3,0,-1,-1,1,1,
08:06:36.445,2,0,0,-1,0,-2,-2,-4,
08:06:36.446,-2,0,-3,-3,-2,-2,-3,-3,
08:06:36.446,1,0,-1,-1,-2,0,0,-1,
08:06:36.447,0,-1,-1,-1,-1,-1,-2,0,
08:06:36.459,0,0,-2,-1,1,0,1,1,
08:06:36.460,2,-2,-1,-1,0,0,-1,1,
08:06:36.461,1,-1,0,0,-1,-2,0,0,
08:06:36.461,2,-1,-1,-1,-1,-2,-2,-3,
08:06:36.482,-3,1,-3,0,-3,0,-1,1,
08:06:36.482,0,0,-1,-2,-1,-1,0,-2,
08:06:36.483,0,0,-1,-1,0,0,1,2,
08:06:36.484,0,-3,-1,1,0,-1,0,-2,
08:06:36.505,-2,-2,-1,0,-1,-1,1,-1,
08:06:36.505,-2,-1,-2,0,0,0,-1,-1,
08:06:36.506,-2,-1,-1,0,-2,-1,0,-1,
08:06:36.506,-3,-1,-1,0,-1,-1,-2,0,
08:06:36.519,-1,0,0,-1,0,0,-1,2,
08:06:36.520,-2,-1,-2,-1,-1,-2,-2,0,
08:06:36.521,-2,-1,-2,0,-1,0,-2,-3,
08:06:36.522,-3,-1,-2,-1,-1,1,-1,-2,
08:06:36.542,-2,0,-1,1,-3,-1,0,-2,
08:06:36.543,0,0,0,-1,-1,-1,-3,1,
08:06:36.550,1,-3,-1,0,-2,-1,-1,1,
08:06:36.551,-6,-2,1,-2,-1,-2,0,-2,
08:06:36.566,0,-1,-2,-2,-1,0,-1,-4,
08:06:36.567,-5,0,-1,-1,1,-2,0,1,
08:06:36.567,2,-1,-1,0,-1,0,1,-1,
08:06:36.567,-10,-3,-2,-2,-2,-2,-4,-7,
08:06:36.580,-1,-2,-1,0,-2,-2,-1,0,
08:06:36.580,0,-3,-2,-3,-3,0,-1,-2,
08:06:36.588,-3,-2,0,1,-1,-2,-2,-1,
08:06:36.588,2,0,0,-1,0,-1,1,0,
08:06:36.603,-1,0,-1,0,1,-1,0,-1,
08:06:36.603,-1,-1,-1,-1,0,-2,1,0,
08:06:36.604,-2,0,-1,-1,-1,0,0,-3,
08:06:36.606,1,0,0,0,-1,0,-1,0,
08:06:36.626,-1,1,1,-3,-1,-2,0,-2,
08:06:36.626,4,1,-1,-1,0,-2,0,1,
08:06:36.627,-8,-3,-2,-1,0,-3,0,-6,
08:06:36.628,-1,-1,-2,-2,-2,0,1,1,
08:06:36.639,-3,-1,-1,0,-2,-2,-1,0,
08:06:36.640,4,0,0,-1,-1,0,-1,2,
08:06:36.648,-9,-3,0,0,-1,-1,-1,-4,
08:06:36.648,-4,0,0,-2,-3,-1,0,-2,
08:06:36.663,1,-2,-1,0,-1,1,-1,-1,
08:06:36.664,-1,-1,1,-1,-1,-1,-3,-2,
08:06:36.665,3,-2,-1,0,-1,0,0,3,
08:06:36.665,2,1,-1,0,0,-2,-2,0,
08:06:36.686,-1,0,0,-1,0,-2,-1,0,
08:06:36.686,-2,-1,-1,-2,-2,-1,-1,-2,
08:06:36.687,2,3,0,-2,0,-1,-1,0,
08:06:36.687,0,-1,-1,-2,-1,0,-1,1,
08:06:36.699,1,1,-2,-2,0,-1,-1,0,
08:06:36.700,-4,0,1,0,-1,-1,-1,-1,
08:06:36.708,2,-1,-1,-1,-1,-2,-2,2,
08:06:36.708,-10,-2,1,-1,0,-1,-3,-7,
08:06:36.723,1,-2,-1,0,-1,-2,-1,0,
08:06:36.723,-1,-1,-1,-1,-1,-2,-1,-2,
08:06:36.724,-2,-1,-1,-1,-2,-2,-2,-2,
08:06:36.725,2,0,-1,-1,0,-2,0,2,
08:06:36.746,1,0,-3,-1,-1,-1,-1,0,
08:06:36.746,-3,-3,-1,0,-1,-1,-2,-5,
08:06:36.747,1,-2,-2,-3,0,-1,-1,-1,
08:06:36.748,2,0,-1,-1,-1,-3,-1,1,
08:06:36.759,-2,0,-1,0,-1,0,-1,-1,
08:06:36.760,0,0,-2,-1,0,-1,-1,0,
08:06:36.768,-1,-2,0,-2,0,0,-1,-1,
08:06:36.769,1,0,-1,0,-1,1,0,1,
08:06:36.783,-2,-1,-2,-2,-1,-2,-2,0,
08:06:36.783,-2,-1,1,-1,-1,0,0,0,
08:06:36.784,-2,-2,-1,-1,0,-2,-1,1,
08:06:36.785,1,-1,-1,0,-1,-1,1,-1,
08:06:36.806,-1,1,1,-1,-1,-1,-1,-1,
08:06:36.806,3,-1,-1,0,-1,0,0,2,
08:06:36.807,-13,-2,-1,-1,-1,1,-2,-8,
08:06:36.807,5,0,0,-1,-2,-1,0,2,
08:06:36.819,-6,-3,-2,-2,-1,-2,-2,-6,
08:06:36.820,-2,-1,-1,-2,-1,-1,0,2,
08:06:36.828,3,-2,-1,-1,-2,0,-1,-1,
08:06:36.828,0,0,-1,0,0,-1,-2,1,
08:06:36.843,-1,0,0,0,1,0,-1,1,
08:06:36.843,-2,-1,-1,-1,-2,-1,0,-3,
08:06:36.844,2,-2,0,0,-1,-2,1,2,
08:06:36.844,-2,-1,-1,-2,-2,1,-1,-2,
08:06:36.866,1,-1,0,-2,-2,-2,-1,1,
08:06:36.866,-2,-4,-1,-3,-1,-3,-1,0,
08:06:36.867,1,-1,0,-1,0,0,0,0,
08:06:36.867,-4,-2,-1,1,0,-1,0,-1,
08:06:36.879,9,-1,0,-2,-1,0,0,0,
08:06:36.880,-11,-1,-3,-1,0,-2,-1,-4,
08:06:36.888,1,0,2,0,-3,1,-1,0,
08:06:36.888,-2,0,0,0,-3,0,2,1,
08:06:36.903,2,-1,0,0,1,1,-1,0,
08:06:36.903,2,0,-1,-1,1,-1,-1,-1,
08:06:36.903,1,-1,-2,1,-1,-2,-2,0,
08:06:36.904,-1,-2,0,0,0,-1,0,-1,
08:06:36.926,-3,-2,-1,0,-3,-1,-1,-2,
08:06:36.927,1,-1,0,-1,-2,-2,-2,1,
08:06:36.929,-4,-2,-2,-1,-1,-3,-2,-6,
08:06:36.929,1,-1,-1,-2,0,-1,-2,1,
08:06:36.939,-3,0,-1,-3,-2,-2,-2,-2,
08:06:36.940,1,-3,0,-2,0,1,-2,-2,
08:06:36.947,4,0,-1,0,0,-2,0,3,
08:06:36.948,0,0,-2,-2,-4,-1,-1,-1,
08:06:36.962,-6,-1,-1,-1,-1,-3,-2,-3,
08:06:36.963,-7,-3,-1,1,-2,0,-2,-5,
08:06:36.964,-1,-2,0,0,-1,0,2,1,
08:06:36.964,3,1,1,-1,1,0,-2,-1,
08:06:36.986,-8,-3,-1,1,-3,-1,-2,-3,
08:06:36.986,3,0,-1,-2,-2,1,0,0,
08:06:36.987,-1,1,-3,-2,-1,0,-2,-1,
08:06:36.987,-4,0,0,-1,-1,0,-2,-2,
08:06:37.008,2,-1,-2,-2,0,0,0,2,
08:06:37.009,1,-2,-2,0,1,-1,1,1,
08:06:37.009,-1,-1,-1,-2,-1,0,-1,-2,
08:06:37.010,0,0,-1,0,-1,-1,1,1,
08:06:37.022,1,1,-2,-1,0,0,1,0,
08:06:37.023,0,0,0,0,-1,0,1,0,
08:06:37.023,-1,0,-1,-1,0,-2,-1,-3,
08:06:37.024,-4,-2,-2,-1,-1,-1,-1,-3,
08:06:37.046,1,0,-1,-1,-2,-2,-1,2,
08:06:37.046,-1,0,0,-1,-2,-1,-1,-1,
08:06:37.047,1,0,0,-3,-1,0,0,1,
08:06:37.048,-1,-1,-2,-1,-1,-1,0,-3,
08:06:37.068,-1,-1,-3,0,-1,-1,-1,-2,
08:06:37.069,1,-1,-1,-2,-2,-2,-1,1,
08:06:37.069,-1,-1,0,-2,-1,-2,-4,-1,
08:06:37.070,6,-1,-1,0,0,0,-1,-1,
08:06:37.083,-2,0,0,0,-1,-1,0,0,
08:06:37.083,0,-2,-1,-1,0,0,-1,-2,
08:06:37.084,-1,-1,-1,-1,-1,-2,0,-1,
08:06:37.085,0,0,-1,-1,0,-1,-1,-1,
08:06:37.106,1,-1,-1,-1,-1,1,-2,0,
08:06:37.106,-1,-2,-2,0,0,-2,0,-1,
08:06:37.107,0,-2,0,-1,-1,0,0,2,
08:06:37.107,-3,-2,-1,-3,0,0,-2,-3,
08:06:37.128,-1,-1,0,-1,-2,-2,-2,-4,
08:06:37.129,3,-1,-2,-3,0,0,-1,3,
08:06:37.129,-2,-1,0,-1,-1,-2,0,-1,
08:06:37.130,-8,-2,0,-1,-1,-4,-1,-3,
08:06:37.142,-2,-2,-1,0,-1,0,0,-1,
08:06:37.143,0,0,0,0,1,0,1,0,
08:06:37.143,1,-1,-1,0,-1,-1,-1,-1,
08:06:37.144,-1,0,-1,0,-1,0,1,0,
08:06:37.165,-1,-1,-1,1,1,-1,0,0,
08:06:37.166,-1,-3,-1,-1,-2,-1,-2,-2,
08:06:37.167,-2,-1,-1,0,1,-1,1,-1,
08:06:37.167,5,0,-1,1,0,-2,0,1,
08:06:37.188,-5,-3,0,-2,-2,0,0,-2,
08:06:37.189,-1,-2,-1,1,-2,0,-1,-1,
08:06:37.189,-3,0,-1,-1,-1,-1,0,-1,
08:06:37.190,1,-1,0,-2,-1,0,0,1,
08:06:37.202,0,0,-1,-2,0,1,0,-2,
08:06:37.203,-2,-1,0,-1,-1,-2,-1,-3,
08:06:37.203,3,-1,0,0,-1,0,0,-1,
08:06:37.204,-4,-1,0,0,1,-1,-1,1,
08:06:37.225,0,-1,-2,0,-1,-1,-1,-3,
08:06:37.226,-2,-3,1,-3,0,0,-2,0,
08:06:37.227,1,-1,0,0,-2,-1,-1,1,
08:06:37.228,-2,-1,-1,-2,-1,-1,-2,-2,
08:06:37.248,-2,-1,-1,-2,-1,-1,-1,1,
08:06:37.249,2,1,0,-1,-2,-3,0,0,
08:06:37.249,-2,-3,-1,0,0,-2,-1,0,
08:06:37.250,-3,0,-1,0,-1,-1,-2,1,
08:06:37.262,7,-1,-2,-1,-2,0,0,1,
08:06:37.263,-7,-2,-1,1,-1,0,-1,-4,
08:06:37.263,-2,-2,0,-2,0,0,-1,-1,
08:06:37.264,-1,-1,-3,-1,-1,-2,-2,-2,
08:06:37.285,0,-1,-1,-1,-1,0,2,1,
08:06:37.286,1,-1,-1,-1,-1,-2,0,0,
08:06:37.287,-3,-3,0,-1,-1,-1,-2,-2,
08:06:37.287,0,-2,-1,-1,0,0,-2,1,
08:06:37.308,-4,-1,-1,0,0,-4,-1,-3,
08:06:37.309,0,0,0,0,-1,0,-1,0,
08:06:37.309,-3,0,-1,-1,-2,-1,0,-1,
08:06:37.310,-2,-2,0,-2,-1,-1,0,-5,
08:06:37.322,-1,-1,0,0,0,-1,-3,0,
08:06:37.323,-2,-2,-1,-1,-1,0,-2,-3,
08:06:37.323,2,-1,-2,-1,-1,-1,0,1,
08:06:37.324,-1,-3,-1,-1,-2,1,-1,0,
08:06:37.345,-2,-1,-2,-1,-1,-1,-1,0,
08:06:37.346,0,-1,0,-1,0,0,-2,1,
08:06:37.347,-3,-1,-2,-2,-3,-2,-4,-1,
08:06:37.347,-3,-1,-1,0,0,-1,0,-3,
08:06:37.368,-2,-1,0,-1,1,-1,-2,-1,
08:06:37.369,-1,0,-2,0,-1,-1,0,-2,
08:06:37.369,-2,0,0,1,-1,-1,0,-2,
08:06:37.370,1,-1,-1,-1,-3,-2,0,1,
08:06:37.382,-2,-2,-2,-2,-2,-1,0,-5,
08:06:37.383,-4,-1,-1,-1,-2,-1,-1,-2,
08:06:37.384,1,0,1,-1,-2,-2,-1,0,
08:06:37.384,-4,-1,-2,0,-1,-1,-2,0,
08:06:37.405,1,1,0,0,-1,-1,0,0,
08:06:37.406,1,-2,-1,0,0,-1,1,-1,
08:06:37.407,-3,-1,-1,-2,-2,-1,-1,-3,
08:06:37.407,2,2,-1,0,0,-1,-2,2,
08:06:37.428,-1,0,0,-1,-1,-2,-1,-2,
08:06:37.429,-2,-2,0,-2,0,-1,0,-2,
08:06:37.430,0,-1,-2,0,-1,0,0,-1,
08:06:37.430,-1,-1,-1,-2,0,-2,0,0,
08:06:37.442,0,0,-2,-2,0,1,0,-1,
08:06:37.443,-2,-3,-2,-1,-1,0,-2,-1,
08:06:37.443,-1,0,-1,-2,0,1,0,0,
08:06:37.444,-2,-2,-1,-2,-1,0,1,-2,
08:06:37.465,-1,-3,-2,-1,-2,-2,-2,0,
08:06:37.466,1,-1,-2,-2,-1,-1,-1,-2,
08:06:37.467,-11,-3,-2,-2,-2,-3,-2,-4,
08:06:37.467,-1,1,0,0,-2,-1,-1,-1,
08:06:37.488,0,-2,0,0,-2,-2,0,1,
08:06:37.488,1,0,-3,0,-2,0,-1,1,
08:06:37.489,2,0,-1,-1,-1,0,-2,2,
08:06:37.490,0,0,-2,0,-2,-1,-1,0,
08:06:37.502,-2,-1,-2,0,0,1,-2,0,
08:06:37.503,0,-1,-1,-1,-2,-2,-2,0,
08:06:37.504,0,0,0,-2,0,-1,0,-1,
08:06:37.504,0,0,0,-3,1,-2,-3,-1,
08:06:37.525,2,-1,-1,-2,-1,-1,1,1,
08:06:37.558,-3,-1,0,-1,0,-1,-4,-4,
08:06:37.558,-1,-1,-2,-2,-1,-1,-2,-3,
08:06:37.559,-1,-2,0,-1,0,-1,-1,0,
08:06:37.559,0,0,0,-2,-1,0,-1,-1,
08:06:37.560,0,0,0,-1,0,0,1,2,
08:06:37.560,0,0,0,1,0,-2,-2,-1,
08:06:37.561,-1,-3,0,0,-2,0,-1,-1,
08:06:37.561,1,0,-1,-1,-1,-1,-2,-1,
08:06:37.562,0,0,-1,0,-2,0,0,-3,
08:06:37.570,2,0,0,-1,-2,0,-1,1,
08:06:37.570,-1,-1,-1,-1,1,3,-1,-1,
08:06:37.585,-2,-1,-1,-1,-2,-1,0,2,
08:06:37.586,6,-2,-1,-1,0,-2,-2,-1,
08:06:37.586,1,0,1,-2,-2,0,1,0,
08:06:37.587,0,-1,-1,0,0,0,-1,0,
08:06:37.608,0,-1,-2,0,-2,0,0,2,
08:06:37.608,-2,-3,0,-1,-1,0,0,-2,
08:06:37.609,0,-3,0,-1,1,-2,-1,1,
08:06:37.610,-1,-1,-1,0,-1,1,0,-1,
08:06:37.621,1,-3,0,0,0,0,-1,-1,
08:06:37.622,-3,-1,1,-1,-1,-1,0,0,
08:06:37.630,-1,-1,-2,-1,0,-1,0,-2,
08:06:37.630,-1,2,-2,-2,-1,-3,-1,-1,
08:06:37.645,-3,-1,-2,0,-2,-2,-1,0,
08:06:37.646,-2,-1,-1,0,-2,-2,-2,0,
08:06:37.646,0,-3,-2,0,-1,-1,0,-1,
08:06:37.647,-1,-2,-2,-1,-3,-2,-2,-2,
08:06:37.668,-1,-1,-2,-1,-1,-3,-1,-1,
08:06:37.668,-1,-2,0,-1,1,0,-1,-1,
08:06:37.669,3,0,-1,0,-1,1,0,0,
08:06:37.669,-3,-3,-2,-1,0,0,-1,-3,
08:06:37.681,-1,0,0,-1,1,0,0,-1,
08:06:37.682,0,0,-2,1,-2,-1,-3,-1,
08:06:37.690,-3,-1,-1,-2,-2,-1,0,2,
08:06:37.690,5,0,-2,-1,-1,0,0,-1,
08:06:37.705,-9,-4,-1,0,-1,-1,0,-6,
08:06:37.706,-1,-1,-2,-2,-3,-1,-1,0,
08:06:37.706,-1,-1,0,-1,-1,-1,-3,-2,
08:06:37.707,-2,2,-1,-1,0,-1,0,-2,
08:06:37.728,1,-1,-2,-2,-1,0,-2,-1,
08:06:37.728,-2,-1,-2,-1,-1,0,0,-1,
08:06:37.729,-3,-2,-2,1,-1,-1,-2,-3,
08:06:37.729,-2,0,0,1,-2,0,-2,0,
08:06:37.741,0,0,-1,1,0,-2,0,-1,
08:06:37.742,-3,0,0,-1,-2,-1,-1,0,
08:06:37.749,-1,-1,1,-1,-1,-1,-1,0,
08:06:37.750,-1,-2,-1,-2,-1,-2,0,-2,
08:06:37.765,-1,-1,1,0,0,0,0,-3,
08:06:37.766,1,0,0,-3,0,-3,1,1,
08:06:37.766,1,-1,-1,0,-1,-2,0,0,
08:06:37.767,-6,0,0,-3,-1,-2,0,-4,
08:06:37.788,1,-1,0,-1,-1,0,0,0,
08:06:37.788,-1,0,-2,0,0,-1,1,-2,
08:06:37.789,0,1,-2,-1,0,0,-1,-1,
08:06:37.789,-2,-1,-2,-2,-4,-1,0,0,
08:06:37.801,0,1,0,-1,-1,-1,-2,-1,
08:06:37.802,0,-2,-1,-1,0,1,-1,0,
08:06:37.809,-2,-2,0,-2,0,0,-2,-2,
08:06:37.810,1,-1,0,0,0,0,-1,0,
08:06:37.825,-3,0,-2,-1,-2,0,0,0,
08:06:37.826,-1,-2,-1,1,0,-1,-1,-3,
08:06:37.826,-1,0,-2,0,-1,-1,1,-1,
08:06:37.827,-1,-1,-1,0,-1,-1,0,-1,
08:06:37.848,1,0,-1,0,-3,-2,0,-2,
08:06:37.850,-2,-2,-1,-1,-1,-2,-1,-1,
08:06:37.851,-1,0,-2,-2,-1,-1,0,-1,
08:06:37.851,0,-1,0,-1,-1,0,-2,1,
08:06:37.861,1,-3,-2,0,0,0,-1,-1,
08:06:37.862,-2,-1,1,-1,1,-1,-2,-1,
08:06:37.870,-1,0,-1,0,0,-1,0,-2,
08:06:37.871,0,1,-1,-2,-1,-2,0,2,
08:06:37.884,6,-1,1,-3,0,-1,1,-1,
08:06:37.885,-12,-3,0,-1,-3,-2,-1,-5,
08:06:37.891,1,-1,0,-1,-1,-1,-1,0,
08:06:37.892,0,-1,0,0,0,-1,-1,1,
08:06:37.908,-1,-2,0,-1,-1,0,1,0,
08:06:37.908,1,0,-2,-1,-1,0,0,1,
08:06:37.909,-3,0,1,-1,-3,0,0,-2,
08:06:37.910,-3,-1,-2,-1,0,-2,1,-1,
08:06:37.930,-2,-2,-1,1,0,-1,-2,-2,
08:06:37.931,2,-3,-2,-1,0,0,1,0,
08:06:37.931,-1,0,-1,-2,-3,-2,-1,-1,
08:06:37.932,2,1,-1,-2,-1,0,-3,-1,
08:06:37.944,-2,-2,-3,-3,-2,-1,-2,-1,
08:06:37.945,1,0,-1,-2,0,1,-2,0,
08:06:37.951,3,-1,-2,-2,-3,-1,1,2,
08:06:37.952,-2,-2,0,-2,-1,-1,0,-2,
08:06:37.967,-4,-4,-3,0,0,-2,-1,0,
08:06:37.968,-1,-2,-2,2,-2,1,-1,0,
08:06:37.970,0,0,-1,-1,0,-1,-1,-1,
08:06:37.971,-8,-1,-2,-1,-2,-1,-6,-6,
08:06:37.990,-2,-1,-1,-1,-1,-2,0,1,
08:06:37.991,1,1,-1,-2,0,-1,-1,0,
08:06:37.992,-3,-2,-1,-3,0,-2,-1,-1,
08:06:37.992,0,0,0,-3,-1,0,0,1,
08:06:38.004,-1,-2,0,0,-2,-1,-2,-1,
08:06:38.005,-1,-1,0,0,-2,-1,0,-1,
08:06:38.011,0,-2,0,-2,-2,-1,-1,0,
08:06:38.012,0,0,-1,-2,-1,0,0,-1,
08:06:38.028,1,0,2,-1,-1,0,-2,-1,
08:06:38.028,1,-1,1,-3,-1,-1,0,-1,
08:06:38.029,-1,0,0,-2,-2,-3,-2,-1,
08:06:38.030,-1,-1,-2,1,-1,0,-1,-1,
08:06:38.051,-1,-1,0,2,-1,-2,-2,0,
08:06:38.052,0,-1,-2,0,-1,0,-1,0,
08:06:38.053,-1,0,-1,1,0,-1,-1,1,
08:06:38.054,-1,-1,0,0,-1,-1,2,0,
08:06:38.065,-1,0,-2,-1,-1,0,-1,-2,
08:06:38.066,0,-4,-1,-1,-1,-1,-1,-1,
08:06:38.072,-1,-2,-1,-1,0,0,0,0,
08:06:38.073,1,0,-2,-2,-1,0,-1,-1,
08:06:38.088,-2,-3,-1,-1,-2,-2,0,-3,
08:06:38.089,-1,-3,-1,0,-1,-2,-2,-2,
08:06:38.090,-1,0,-1,-1,-1,1,0,0,
08:06:38.091,0,-2,0,1,-1,0,-1,2,
08:06:38.111,-2,-1,-2,-2,-1,0,0,-1,
08:06:38.112,0,-2,-3,-1,-2,-1,0,-1,
08:06:38.112,0,-1,-3,0,-2,-1,-2,-2,
08:06:38.114,0,0,1,-1,-2,-1,-1,1,
08:06:38.125,-3,-3,-1,-2,-1,-2,0,-1,
08:06:38.125,0,-3,-2,0,0,-2,-2,0,
08:06:38.133,-1,4,0,2,-1,-1,-3,-1,
08:06:38.134,0,-3,-2,-1,1,0,2,-1,
08:06:38.148,-1,-1,0,1,-1,0,0,-1,
08:06:38.149,-2,1,2,1,1,0,0,0,
08:06:38.150,-2,0,-6,-4,-1,-1,-1,-1,
08:06:38.150,0,-8,-3,-2,-3,-2,-2,0,
08:06:38.171,0,-3,3,5,4,0,-3,0,
08:06:38.172,6,0,11,8,7,4,1,1,
08:06:38.172,-6,-13,-4,-1,-5,0,0,-4,
08:06:38.173,-7,-3,-33,-27,-8,-6,-5,-3,
08:06:38.184,0,11,4,-3,-4,-1,0,-1,
08:06:38.185,10,-2,2,2,-2,-3,-2,5,
08:06:38.193,-5,-34,-6,1,1,2,2,1,
08:06:38.194,1,32,29,13,6,-1,-1,-3,
08:06:38.208,-3,4,9,7,-2,-5,-6,-3,
08:06:38.209,-4,-6,-72,-46,-17,-2,0,-2,
08:06:38.210,6,13,15,0,9,4,6,1,
08:06:38.210,3,-6,13,20,9,0,0,2,
08:06:38.230,4,1,12,5,11,3,0,2,
08:06:38.230,5,13,14,8,-9,0,6,4,
08:06:38.238,7,-21,-6,-11,-15,-9,-9,-3,
08:06:38.239,-15,-19,-30,3,8,12,9,-1,
08:06:38.244,8,-2,-1,11,16,10,5,6,
08:06:38.245,-12,24,20,1,3,-6,-2,-7,
08:06:38.253,-2,-6,-13,-14,-16,-11,-3,4,
08:06:38.254,5,13,23,-2,-15,-17,-14,-3,
08:06:38.268,-2,10,-14,-11,-10,-7,-8,-3,
08:06:38.270,1,-22,-11,-2,10,21,20,5,
08:06:38.271,-2,12,8,13,12,4,1,-3,
08:06:38.272,2,1,12,-5,-3,-3,0,2,
08:06:38.291,-7,-16,-20,-23,-18,-3,1,-2,
08:06:38.291,-2,1,9,0,-10,-5,-9,-4,
08:06:38.292,-8,3,1,13,14,-8,-5,-6,
08:06:38.293,0,-13,-6,15,11,14,6,0,
08:06:38.304,7,-1,17,10,3,3,4,4,
08:06:38.305,1,-2,13,24,15,-1,1,-1,
08:06:38.313,-2,4,-17,-7,-1,-15,-14,-4,
08:06:38.314,4,1,1,-5,-5,4,2,1,
08:06:38.328,-9,-5,-8,-27,-22,-2,6,-6,
08:06:38.329,-6,-6,-19,-31,-24,-15,-9,-6,
08:06:38.330,0,-1,7,8,-4,-7,-4,0,
08:06:38.331,3,3,-3,-6,12,0,3,0,
08:06:38.351,0,1,6,24,13,24,11,-1,
08:06:38.351,-6,-11,-1,-5,-2,-20,-11,-3,
08:06:38.352,0,10,8,2,-20,2,5,0,
08:06:38.353,-1,-1,7,-16,-8,1,1,1,
08:06:38.364,3,0,-11,32,43,15,5,4,
08:06:38.365,0,3,9,22,13,-8,-12,-3,
08:06:38.373,0,5,-2,-12,-11,8,10,2,
08:06:38.374,-4,-7,-14,-20,-37,-20,-12,-8,
08:06:38.388,-7,-10,-15,-23,-23,-29,-14,-8,
08:06:38.389,2,1,5,2,22,15,5,3,
08:06:38.390,-4,3,15,7,-20,-1,-3,-4,
08:06:38.391,2,1,-4,-14,3,8,3,3,
08:06:38.411,-1,3,2,20,25,-4,-4,0,
08:06:38.411,-2,-2,4,14,13,4,1,0,
08:06:38.412,0,4,11,11,10,11,-3,-1,
08:06:38.413,0,-6,-39,2,6,-5,-1,1,
08:06:38.424,0,3,7,-19,-20,-10,-4,0,
08:06:38.425,-7,-8,7,-8,-24,1,0,-6,
08:06:38.433,-1,9,-1,-32,-17,-12,6,1,
08:06:38.434,-11,-12,-7,3,3,14,-14,-11,
08:06:38.448,-2,-8,-26,-19,-10,-25,-12,0,
08:06:38.449,0,0,-7,-3,1,22,2,0,
08:06:38.450,4,1,1,1,-12,-43,-12,-2,
08:06:38.450,2,3,10,7,31,65,32,1,
08:06:38.471,1,-8,5,20,18,-2,-20,-1,
08:06:38.473,5,1,18,29,20,-12,17,3,
08:06:38.474,-8,-13,-29,-33,-19,8,-14,-10,
08:06:38.474,3,14,26,-48,-73,-45,-3,1,
08:06:38.484,12,21,37,78,86,76,33,13,
08:06:38.485,-16,-31,-33,-10,-14,-26,-26,-11,
08:06:38.493,-4,-1,3,-14,-11,10,1,-5,
08:06:38.494,-1,-6,-2,-6,-20,-25,-4,0,
08:06:38.516,-1,1,1,0,-6,-4,-1,-5,
08:06:38.516,3,8,1,-14,-13,-6,7,4,
08:06:38.517,-1,0,-1,17,22,-2,-17,0,
08:06:38.518,1,-3,-3,25,24,29,9,2,
08:06:38.531,0,2,13,-24,-26,-31,5,2,
08:06:38.531,1,-8,-5,24,13,23,-7,-5,
08:06:38.532,-5,-10,-6,-22,-21,-18,-11,-6,
08:06:38.533,0,2,-4,-18,-32,-27,-16,-2,
08:06:38.544,-2,-11,-12,2,14,32,31,5,
08:06:38.545,-6,0,32,5,1,-1,-27,-8,
08:06:38.553,8,7,-3,-11,4,15,18,8,
08:06:38.554,-5,-13,-29,22,13,-41,-23,-3,
08:06:38.568,-5,-3,-15,-58,-50,9,4,-3,
08:06:38.569,14,27,34,67,85,24,21,13,
08:06:38.570,-2,-3,-16,9,9,0,0,0,
08:06:38.570,0,-2,-4,6,-8,-20,7,3,
08:06:38.591,-15,-14,-7,-46,-50,6,-36,-23,
08:06:38.591,5,12,-1,-21,-20,-14,2,4,
08:06:38.592,0,-5,23,34,32,32,14,-2,
08:06:38.593,3,-8,-15,20,28,4,2,2,
08:06:38.604,-5,-7,17,-21,-29,-52,-21,-5,
08:06:38.605,-4,-12,-2,-25,-20,28,3,-4,
08:06:38.613,5,-16,-16,3,25,2,3,5,
08:06:38.614,1,-4,22,12,10,12,-1,-3,
08:06:38.627,3,-12,17,19,6,-5,4,-1,
08:06:38.628,-3,-8,-25,-20,-23,-38,-2,0,
08:06:38.634,-7,5,3,-25,-31,6,-9,-9,
08:06:38.635,1,11,14,3,10,13,4,0,
08:06:38.651,-2,9,-41,13,18,-20,3,4,
08:06:38.651,5,17,29,-13,-20,8,2,1,
08:06:38.652,-2,16,11,34,57,66,10,0,
08:06:38.653,1,-1,-4,-7,-12,-31,-5,-1,
08:06:38.674,-1,-2,16,-5,-13,16,-10,-5,
08:06:38.675,1,-17,-6,-10,-8,-22,-1,3,
08:06:38.677,1,-14,-5,8,1,-11,15,4,
08:06:38.678,-2,-11,8,5,6,6,-1,-2,
08:06:38.687,-5,-22,-10,-8,-12,-12,-7,-4,
08:06:38.688,-1,-15,-8,-12,-19,-9,0,-2,
08:06:38.694,4,8,-20,0,-1,-8,-4,2,
08:06:38.695,-9,23,24,4,9,-3,0,-5,
08:06:38.711,-3,4,-62,-19,-14,-27,0,2,
08:06:38.711,-6,27,10,-5,-8,23,-16,-14,
08:06:38.715,0,26,-8,1,9,-7,3,1,
08:06:38.716,8,28,21,8,-1,-5,-2,7,
08:06:38.724,-2,17,1,5,10,-6,-7,-1,
08:06:38.725,-1,-1,-17,-14,-15,-2,0,1,
08:06:38.733,2,-21,-5,5,9,-2,4,4,
08:06:38.734,-5,-43,-10,-7,-9,14,-6,-5,
08:06:38.747,1,-5,16,8,11,5,1,-1,
08:06:38.748,-7,-45,-24,-3,0,-7,4,1,
08:06:38.754,-3,-49,20,-11,-32,-32,-14,-5,
08:06:38.755,2,-16,16,2,13,14,10,0,
08:06:38.770,2,36,-12,15,16,14,2,4,
08:06:38.771,-8,59,-3,-16,-22,-18,-12,-11,
08:06:38.772,-1,84,11,-6,-9,22,3,-1,
08:06:38.773,5,13,5,10,16,17,11,2,
08:06:38.793,-2,-39,-23,-1,-1,-12,0,0,
08:06:38.794,7,-15,-6,0,17,8,-3,5,
08:06:38.794,-5,-62,-11,3,4,-12,-1,-4,
08:06:38.795,-10,-40,-7,-22,-26,-26,-8,-7,
08:06:38.807,9,-30,39,6,-9,25,17,4,
08:06:38.808,-2,85,-7,13,11,-17,-22,-4,
08:06:38.814,0,69,0,-2,0,-13,3,2,
08:06:38.815,1,28,-20,-10,-2,10,1,3,
08:06:38.830,-2,-17,-3,-8,0,26,-7,-3,
08:06:38.831,2,-48,-2,-4,-11,-21,1,1,
08:06:38.832,1,-34,4,9,0,-15,-4,2,
08:06:38.833,-3,-16,3,2,7,22,5,-2,
08:06:38.853,-5,-1,9,3,-5,-16,-11,-3,
08:06:38.854,4,-11,-1,2,5,5,9,2,
08:06:38.855,-6,-16,-5,-6,-6,-5,-16,-5,
08:06:38.855,6,11,-14,-7,-5,3,4,6,
08:06:38.867,1,35,46,33,25,1,2,-2,
08:06:38.868,-5,-16,-17,-6,-3,5,8,-2,
08:06:38.874,-2,-16,-12,-11,-11,-5,5,-2,
08:06:38.875,-2,5,8,2,-6,-5,-5,-3,
08:06:38.890,-1,3,-23,-16,-5,-18,8,4,
08:06:38.891,0,-27,-2,4,9,18,-7,-3,
08:06:38.892,-4,-4,-17,-14,-4,5,0,-1,
08:06:38.893,-2,16,0,1,-4,-16,-9,-1,
08:06:38.913,-1,17,12,-4,-10,-4,-15,-3,
08:06:38.913,-4,-21,-14,-1,2,1,9,1,
08:06:38.914,-2,22,26,7,-5,-7,-5,-3,
08:06:38.915,3,26,6,10,8,-2,-11,3,
08:06:38.926,-2,-15,-11,-4,-5,-6,19,-2,
08:06:38.927,-3,-20,-24,-15,-13,5,4,-2,
08:06:38.935,4,14,26,12,4,7,1,3,
08:06:38.936,4,-5,-10,4,17,5,16,5,
08:06:38.950,-3,9,-5,0,-4,10,-10,-1,
08:06:38.951,-1,-4,26,17,18,8,4,-1,
08:06:38.952,-1,-2,-22,-22,-19,-12,8,-2,
08:06:38.953,-2,8,4,3,-1,-14,-13,-2,
08:06:38.973,-1,-9,-17,-9,-3,3,-3,-1,
08:06:38.973,-7,-1,3,-5,-8,-4,-1,-4,
08:06:38.975,7,7,7,8,0,-27,-16,1,
08:06:38.976,-4,-8,-14,-8,0,35,17,-5,
08:06:38.987,2,-14,-8,2,-1,-4,-1,2,
08:06:38.987,3,-1,-9,-3,0,3,4,5,
08:06:39.001,1,-7,15,3,2,0,2,-2,
08:06:39.002,-5,8,4,2,-16,-45,-13,-4,
08:06:39.010,-2,7,17,-3,5,48,8,-1,
08:06:39.011,9,7,-1,14,18,4,2,6,
08:06:39.012,5,-11,-1,0,7,5,-1,-3,
08:06:39.012,-16,-28,-31,-7,-8,-10,-7,-8,
08:06:39.033,-2,11,27,-2,-10,-21,-5,-5,
08:06:39.033,-10,-9,-6,4,1,-13,-2,-3,
08:06:39.035,1,-4,-19,-7,-4,13,-4,0,
08:06:39.035,4,6,19,7,12,9,-3,1,
08:06:39.046,3,-6,-9,-3,-8,-16,-5,2,
08:06:39.047,2,1,-6,-3,0,20,15,2,
08:06:39.055,-5,-5,16,5,0,-5,4,-4,
08:06:39.056,0,-12,-23,-12,-5,-17,-9,-3,
08:06:39.070,4,15,15,9,6,9,12,4,
08:06:39.071,3,-2,-4,-11,-8,3,-10,-5,
08:06:39.072,2,10,4,4,4,16,18,5,
08:06:39.073,-4,4,21,3,4,9,-4,-5,
08:06:39.093,-2,-19,-35,-8,1,-20,-6,1,
08:06:39.093,-9,2,0,-6,-18,-16,-7,-5,
08:06:39.095,-1,21,21,8,7,8,13,1,
08:06:39.096,3,-4,-6,2,2,-8,-15,-2,
08:06:39.106,-2,0,4,-6,-12,-13,-10,-1,
08:06:39.108,5,-2,-1,11,22,66,21,1,
08:06:39.115,-3,-11,-13,-7,-7,-11,1,1,
08:06:39.116,0,2,-5,-7,-3,-3,-1,-1,
08:06:39.131,-6,2,9,-2,-12,-20,-6,-3,
08:06:39.131,0,-1,-11,-12,-19,-21,1,-1,
08:06:39.136,3,10,17,9,11,-7,-16,1,
08:06:39.137,-4,-30,-21,-9,-4,17,13,-2,
08:06:39.154,-1,4,-12,0,-2,-6,4,-1,
08:06:39.154,2,2,16,0,-1,-11,-4,4,
08:06:39.159,-4,-11,-20,1,2,0,-5,-4,
08:06:39.159,5,4,18,-3,0,22,6,1,
08:06:39.167,-5,-15,-6,-1,0,-3,-4,-3,
08:06:39.168,-4,3,4,2,4,-7,1,0,
08:06:39.174,-2,-17,-18,-16,-15,-4,-8,-2,
08:06:39.175,4,7,11,20,15,-7,-3,1,
08:06:39.190,3,-9,-13,-13,-4,3,4,1,
08:06:39.191,-4,-2,6,-1,-9,-11,-12,-7,
08:06:39.193,5,-2,-2,6,8,2,5,4,
08:06:39.193,-14,8,8,0,-6,5,5,-5,
08:06:39.213,0,-2,15,5,2,-3,-5,-2,
08:06:39.213,-1,-2,-8,4,1,-3,0,1,
08:06:39.215,-8,-20,-24,-14,-13,-18,-6,-5,
08:06:39.216,1,9,-4,3,5,18,1,1,
08:06:39.227,1,-1,19,8,8,27,-1,-3,
08:06:39.228,3,-1,3,-8,-3,-10,0,0,
08:06:39.234,-1,7,0,2,-2,-1,-10,-3,
08:06:39.234,0,3,2,-5,-10,-29,-8,0,
08:06:39.250,-8,-10,-20,-7,-4,1,-3,-6,
08:06:39.251,2,8,5,-1,-3,-10,1,3,
08:06:39.252,-2,10,8,4,6,10,-2,-2,
08:06:39.252,1,3,-13,-5,-2,-24,-3,1,
08:06:39.273,5,11,7,2,3,17,14,2,
08:06:39.273,0,7,12,9,6,21,10,0,
08:06:39.274,-7,-18,-31,-10,-6,-2,-8,-5,
08:06:39.275,3,27,38,13,4,4,2,1,
08:06:39.287,1,-7,-15,-7,-2,-6,6,1,
08:06:39.288,-6,-13,-15,-2,3,-8,-12,-5,
08:06:39.294,-1,14,22,2,-5,-4,-9,-2,
08:06:39.295,-2,-6,-17,-5,-5,-6,2,-3,
08:06:39.310,5,11,-6,-7,-6,-12,-6,3,
08:06:39.311,-4,-8,3,2,3,-4,7,1,
08:06:39.312,2,-10,17,12,8,28,0,-1,
08:06:39.312,3,-6,-19,-14,-10,-2,-5,-2,
08:06:39.333,-1,-3,3,4,1,-6,0,-1,
08:06:39.333,-4,7,-1,2,7,-10,-6,-1,
08:06:39.334,1,-5,-2,-2,0,-4,3,3,
08:06:39.335,-2,-5,1,1,-4,-10,2,1,
08:06:39.346,3,-9,-4,0,3,13,-1,-2,
08:06:39.347,5,1,6,0,-2,-7,-1,4,
08:06:39.355,0,3,-3,-1,-4,-4,2,-1,
08:06:39.356,-6,-8,5,-5,-8,-12,-7,-4,
08:06:39.370,-7,-1,-9,-5,-5,13,2,-7,
08:06:39.371,5,3,13,8,1,-14,1,3,
08:06:39.372,-4,-15,-15,-7,-2,11,-6,-3,
08:06:39.372,3,-5,18,5,-3,1,0,0,
08:06:39.393,-8,-20,-27,-7,-1,6,-4,-3,
08:06:39.394,-1,-1,-5,0,1,2,-4,0,
08:06:39.395,-2,-10,-11,-7,-3,3,10,1,
08:06:39.396,5,-4,-12,0,4,-12,-7,3,
08:06:39.406,3,9,30,0,-6,-7,8,3,
08:06:39.407,-6,-5,8,2,-2,1,-19,-9,
08:06:39.415,-1,-15,-10,-2,2,-12,-1,1,
08:06:39.416,1,-4,-5,-1,0,4,3,0,
08:06:39.430,9,-1,8,2,1,-8,5,4,
08:06:39.431,-8,-2,2,-9,-12,3,-13,-7,
08:06:39.432,-7,-11,-3,4,4,-6,4,-3,
08:06:39.433,2,-3,-2,-2,3,13,2,6,
08:06:39.453,3,-4,-10,6,10,2,10,1,
08:06:39.453,4,-7,7,-6,-15,-9,-14,-3,
08:06:39.455,0,0,4,3,1,5,0,-3,
08:06:39.456,-2,-17,-18,-1,4,5,4,-2,
08:06:39.466,-3,11,22,7,-3,-7,-5,0,
08:06:39.467,1,8,0,-1,2,-11,4,1,
08:06:39.475,-4,-10,-2,-4,0,7,-11,-4,
08:06:39.476,-8,-15,-18,-10,-5,17,14,-2,
08:06:39.490,-4,-13,-5,-5,-1,-8,5,-2,
08:06:39.491,0,9,10,7,6,-7,-2,2,
08:06:39.492,6,3,9,3,0,2,5,1,
08:06:39.492,-2,-11,-12,0,3,-5,-6,-3,
08:06:39.512,-11,-5,-3,-10,-6,-1,-6,-6,
08:06:39.513,-1,-16,-6,-11,-13,-2,1,-1,
08:06:39.514,3,-1,-7,-1,2,-3,1,2,
08:06:39.514,0,10,12,9,4,-30,-3,-1,
08:06:39.526,3,6,6,-2,-7,11,-6,0,
08:06:39.527,5,-24,-27,-4,13,15,2,5,
08:06:39.536,-10,7,15,2,-7,0,-5,-6,
08:06:39.537,-5,-7,-2,-6,0,17,8,-3,
08:06:39.551,0,-12,-8,-1,-3,-26,-8,-1,
08:06:39.552,1,16,34,0,-13,-10,-1,0,
08:06:39.553,1,-23,-19,-3,3,-9,-5,1,
08:06:39.553,2,-3,-2,-1,-5,-3,-2,1,
08:06:39.573,-9,-10,-16,2,2,6,0,-4,
08:06:39.574,4,4,1,2,7,12,-3,1,
08:06:39.575,0,-9,-3,-1,-1,-3,5,0,
08:06:39.576,-3,2,9,-2,-6,-2,-6,-4,
08:06:39.587,6,-10,-3,1,4,-1,1,1,
08:06:39.588,-10,-10,-12,-8,-11,-21,0,-3,
08:06:39.596,-2,-4,8,3,7,22,17,1,
08:06:39.597,2,-2,-7,-3,-1,9,1,0,
08:06:39.611,-4,5,-8,-1,1,-5,-10,-1,
08:06:39.612,6,17,5,2,-4,-10,6,1,
08:06:39.613,1,-8,-17,-3,2,-2,-5,2,
08:06:39.614,-2,2,17,-3,-9,2,9,-1,
08:06:39.633,-1,21,8,3,5,1,1,1,
08:06:39.634,-3,-7,-17,-1,2,4,-7,-6,
08:06:39.635,-3,9,22,-3,-9,-13,-7,-1,
08:06:39.635,0,5,-12,-7,-4,-10,-9,-1,
08:06:39.647,-1,18,2,-2,-6,-16,-5,-1,
08:06:39.647,-2,8,-3,4,8,30,17,2,
08:06:39.656,6,2,-2,0,-2,-14,-1,2,
08:06:39.656,-9,-8,-3,-3,-6,5,0,-5,
08:06:39.671,3,11,12,2,0,2,-2,2,
08:06:39.672,-5,-3,-17,-8,-5,-17,-7,-5,
08:06:39.673,2,-2,11,6,-1,2,5,0,
08:06:39.673,-3,-4,-12,-4,4,-7,-8,-2,
08:06:39.693,-1,-14,1,-3,-4,-5,10,1,
08:06:39.694,-2,-8,-6,-1,4,29,0,-4,
08:06:39.695,-2,13,24,2,-9,-26,-8,-3,
08:06:39.696,9,-13,-6,-2,3,24,-12,-2,
08:06:39.707,-14,-15,-13,1,-2,-13,-5,-9,
08:06:39.707,2,5,8,-1,-4,-7,6,3,
08:06:39.716,0,-5,-6,1,6,2,2,-2,
08:06:39.716,-4,-8,6,5,1,2,3,0,
08:06:39.731,3,-3,-6,-2,7,3,-6,0,
08:06:39.732,-4,-1,5,2,-2,5,4,-5,
08:06:39.733,8,-9,-2,6,11,-1,0,3,
08:06:39.733,-10,-17,-13,-4,-6,-2,0,-4,
08:06:39.753,2,12,23,6,-1,21,-2,-2,
08:06:39.754,-6,-3,-14,-13,-16,-23,-18,-5,
08:06:39.755,0,8,-8,-3,3,4,3,5,
08:06:39.755,7,-3,7,11,5,-5,3,3,
08:06:39.767,-2,-17,-8,-3,-5,6,-24,-5,
08:06:39.768,0,12,5,0,2,13,13,3,
08:06:39.776,-3,-15,-7,-8,-7,2,0,-5,
08:06:39.776,7,-17,-1,-4,-4,-10,-2,0,
08:06:39.791,-9,8,-12,-1,-5,-7,-3,-4,
08:06:39.792,8,19,28,11,4,-3,5,5,
08:06:39.793,-4,-11,-1,-3,1,6,-3,-2,
08:06:39.793,-8,-13,-4,-5,-6,-1,8,-2,
08:06:39.813,4,-4,1,-4,-3,1,2,0,
08:06:39.814,1,-17,-14,-3,2,6,5,2,
08:06:39.819,-7,-25,-12,-5,-3,-8,-3,-1,
08:06:39.820,-4,-1,14,3,-3,-8,-9,-2,
08:06:39.836,6,-4,-11,-11,-9,0,7,4,
08:06:39.836,-1,-3,5,7,8,-3,0,-1,
08:06:39.837,0,7,1,-6,-13,-11,-10,-5,
08:06:39.838,0,1,0,1,3,-2,0,-1,
08:06:39.851,-8,-14,-1,-9,-13,-13,-6,-4,
08:06:39.851,2,1,-18,-9,-5,-5,2,4,
08:06:39.852,2,-13,-2,11,14,11,5,2,
08:06:39.853,1,-12,-4,-4,-5,1,-1,1,
08:06:39.873,10,10,5,6,7,0,3,3,
08:06:39.874,-19,-16,-4,-10,-12,-13,-12,-12,
08:06:39.875,-5,-14,-21,-17,-18,2,0,-2,
08:06:39.875,-4,-4,8,5,8,1,-4,-5,
08:06:39.903,0,8,-10,-19,-21,-7,-1,-1,
08:06:39.904,7,4,22,36,39,10,4,6,
08:06:39.905,-1,-9,4,8,8,3,0,-1,
08:06:39.906,1,-8,-1,3,1,0,-1,0,
08:06:39.909,-3,-27,-7,-2,2,-2,-1,-2,
08:06:39.911,-6,-5,-17,-20,-16,-8,-6,-4,
08:06:39.918,1,2,11,5,2,2,4,0,
08:06:39.919,1,-26,-10,-5,-2,0,-1,2,
08:06:39.933,0,27,12,9,8,2,2,1,
08:06:39.934,10,-6,-5,-3,-6,0,-1,2,
08:06:39.935,4,15,5,2,-2,-3,-2,5,
08:06:39.936,-4,6,-11,-10,-8,-2,-4,-9,
08:06:39.956,-26,-5,-3,-3,1,-2,-5,-9,
08:06:39.956,8,-3,0,0,-5,-2,1,6,
08:06:39.957,6,-1,0,0,4,2,3,3,
08:06:39.958,-4,-6,2,-1,-3,2,-3,-6,
08:06:39.969,-5,0,-3,6,5,0,-1,-2,
08:06:39.970,-7,-1,0,0,-1,-2,-2,-3,
08:06:39.978,17,-2,-2,-3,-7,-1,0,10,
08:06:39.979,-5,9,2,0,-1,3,2,6,
08:06:39.993,18,8,1,5,6,0,3,-1,
08:06:39.994,-31,-2,-4,-8,-10,-8,-8,-13,
08:06:39.995,-19,-9,-4,-4,-3,1,-7,-13,
08:06:39.995,12,6,0,-5,-4,-5,-2,5,
08:06:40.016,2,3,3,1,-6,0,1,8,
08:06:40.016,19,14,6,6,9,5,7,9,
08:06:40.017,-9,8,-5,-4,-5,-2,-5,-8,
08:06:40.018,0,16,-3,-3,-1,-2,-6,-5,
08:06:40.029,4,37,2,2,-1,-1,-1,-3,
08:06:40.030,11,25,-3,-7,-7,-3,-1,9,
08:06:40.038,-25,3,-6,-5,-3,-4,-4,-12,
08:06:40.039,5,13,9,8,7,5,8,12,
08:06:40.053,5,8,1,0,3,1,-1,-2,
08:06:40.054,-20,-1,-3,-4,-3,-7,-8,-18,
08:06:40.055,12,10,-1,-5,-4,-4,-1,3,
08:06:40.055,9,3,0,-1,1,1,0,9,
08:06:40.076,-10,3,-2,-1,-3,-1,-2,-2,
08:06:40.076,12,-1,5,5,8,3,2,4,
08:06:40.077,4,-11,6,6,1,0,2,0,
08:06:40.078,-3,-2,-1,-1,-2,1,3,-3,
08:06:40.089,-1,-10,-4,-1,2,-2,0,2,
08:06:40.090,0,-11,-3,-3,-5,-1,-2,-2,
08:06:40.098,6,-5,-4,-4,-6,-2,-1,-1,
08:06:40.099,-13,7,7,2,-3,-3,-4,-5,
08:06:40.114,6,31,-6,-4,1,-1,-1,3,
08:06:40.115,-4,12,0,6,5,2,0,1,
08:06:40.116,3,25,3,2,3,0,0,-5,
08:06:40.117,5,-10,-7,-5,2,4,2,1,
08:06:40.136,-13,-38,-2,2,-3,-6,-3,-6,
08:06:40.138,7,3,-3,-12,-12,-1,2,9,
08:06:40.138,3,-14,-4,1,3,-2,-3,2,
08:06:40.139,-11,8,-3,-2,-2,-2,-3,-9,
08:06:40.149,-3,14,3,9,8,2,1,-1,
08:06:40.150,4,20,-5,-5,-4,0,-2,0,
08:06:40.158,-3,8,-3,-2,-5,-4,0,0,
08:06:40.159,3,0,-4,-6,-6,-3,-4,-4,
08:06:40.173,12,-17,-2,6,9,5,2,3,
08:06:40.174,-9,-20,-1,-3,-6,-7,-8,-5,
08:06:40.175,3,17,4,1,-1,4,2,6,
08:06:40.175,10,36,5,11,12,2,1,3,
08:06:40.196,-11,25,-1,-4,3,4,0,-6,
08:06:40.196,-22,4,1,9,6,0,-3,-7,
08:06:40.197,-14,-18,-13,-13,-6,-1,-3,-6,
08:06:40.198,-6,-40,-2,-6,-7,-2,-1,-1,
08:06:40.209,3,-55,2,1,1,1,1,1,
08:06:40.210,8,-47,2,1,-1,-1,2,7,
08:06:40.226,-4,-26,1,0,0,-4,-3,-1,
08:06:40.226,-7,-15,-3,-2,-6,-1,-1,-2,
08:06:40.233,0,-6,-1,-2,-4,0,-2,-1,
08:06:40.234,-4,-15,-3,-4,-5,-3,-1,-3,
08:06:40.235,4,-2,3,-1,-3,2,1,5,
08:06:40.235,5,-3,-1,1,7,3,-2,-2,
08:06:40.255,-9,-19,-4,-6,-6,-3,-2,-5,
08:06:40.256,-2,-23,0,6,8,2,4,0,
08:06:40.257,8,-10,-1,0,-4,0,1,1,
08:06:40.258,0,-11,2,2,0,-3,-1,5,
08:06:40.269,-1,-9,-1,0,0,-2,-2,-8,
08:06:40.270,6,-11,-3,-6,-8,-5,-1,-5,
08:06:40.278,-10,0,0,-7,-6,0,-4,-1,
08:06:40.278,-10,8,0,9,9,3,2,-3,
08:06:40.293,15,7,-1,6,4,2,1,9,
08:06:40.294,3,0,0,-1,-2,-3,-2,-2,
08:06:40.295,-8,1,-7,-3,-1,1,2,-8,
08:06:40.295,3,13,-2,-8,-10,-3,-2,0,
08:06:40.315,-3,8,-1,-8,-8,-1,0,3,
08:06:40.316,-2,1,0,10,17,3,0,1,
08:06:40.317,5,1,-1,0,-2,-3,-2,2,
08:06:40.318,1,0,0,1,2,-1,3,0,
08:06:40.329,-5,-1,1,-1,0,0,-2,-5,
08:06:40.329,-1,-11,-1,-8,-11,-5,-4,-1,
08:06:40.338,13,20,6,10,10,1,0,6,
08:06:40.338,-6,1,-3,-4,-5,-1,-1,-5,
08:06:40.353,0,-22,-8,-5,-5,-8,-6,2,
08:06:40.353,-5,5,4,2,0,2,1,-4,
08:06:40.354,2,-7,0,-4,-3,0,-1,-3,
08:06:40.355,0,1,-4,-1,-1,-2,-2,-1,
08:06:40.375,-2,-1,-3,-5,-3,-3,-1,-3,
08:06:40.376,-17,7,-2,-5,-4,0,-1,-1,
08:06:40.377,-1,0,-1,3,2,2,-2,-2,
08:06:40.378,-7,2,0,4,2,1,-2,-5,
08:06:40.389,4,4,-1,0,2,1,1,2,
08:06:40.389,0,-4,-4,0,0,1,1,0,
08:06:40.398,-7,1,-1,-6,-5,-4,-5,-2,
08:06:40.399,-3,0,-1,-2,-2,0,1,-1,
08:06:40.413,-2,5,2,1,-2,-1,-1,1,
08:06:40.413,6,-2,-4,-5,-5,-4,-3,0,
08:06:40.414,-7,-8,-3,-2,0,-2,0,-2,
08:06:40.415,-2,-1,-5,-6,-7,-6,-5,-4,
08:06:40.435,3,5,-2,-4,-6,-2,0,2,
08:06:40.436,1,0,1,-2,-2,2,1,-2,
08:06:40.437,10,0,6,14,16,5,2,5,
08:06:40.438,-9,-2,-2,-4,-5,-3,-6,-7,
08:06:40.449,-1,5,-1,3,1,1,3,0,
08:06:40.450,1,-2,-2,-3,-4,1,1,0,
08:06:40.458,-4,0,-3,-3,-4,1,-1,-1,
08:06:40.459,7,3,2,6,10,1,1,5,
08:06:40.472,-10,-1,-1,-4,-6,-3,-3,-6,
08:06:40.473,0,-3,-5,-7,-5,-2,-4,-1,
08:06:40.479,0,-1,-2,-4,-3,-3,-1,-2,
08:06:40.479,-1,-2,-1,-1,-1,1,0,-1,
08:06:40.495,-2,-1,2,1,-1,0,1,0,
08:06:40.496,3,-7,-2,1,-1,-1,-3,-2,
08:06:40.497,-5,-2,-2,-3,-3,-2,-2,-4,
08:06:40.498,-2,-1,-3,-2,-2,0,-3,-2,
08:06:40.509,1,2,-1,0,2,-1,-1,3,
08:06:40.509,-7,-1,-3,1,1,-2,-4,-5,
08:06:40.518,-6,1,2,1,-2,0,0,-2,
08:06:40.518,2,1,-1,-2,-2,-1,1,-1,
08:06:40.532,2,-2,1,0,0,2,0,-1,
08:06:40.533,2,0,1,1,4,0,1,2,
08:06:40.539,-6,-4,-5,-5,-4,-3,-3,-2,
08:06:40.539,-2,-2,0,0,-3,-1,1,-3,
08:06:40.555,-1,0,0,0,0,-1,-3,-2,
08:06:40.556,1,-4,0,0,-3,0,-1,0,
08:06:40.557,-1,-5,-1,-2,0,0,0,0,
08:06:40.558,1,-2,-2,-3,-2,-2,-2,1,
08:06:40.569,-3,-2,-2,-1,0,-1,0,-2,
08:06:40.569,0,-1,-2,0,-1,-1,-2,1,
08:06:40.578,-3,-2,-1,-2,-1,-1,-1,0,
08:06:40.578,0,-1,0,-2,-2,0,0,0,
08:06:40.592,-1,0,0,-2,0,0,0,2,
08:06:40.593,6,1,0,0,0,0,1,0,
08:06:40.599,1,0,0,-3,-3,-1,1,-1,
08:06:40.600,-3,1,-1,0,-2,0,-1,-1,
08:06:40.615,-2,1,0,0,0,-1,-3,-1,
08:06:40.616,1,-1,-3,-1,-1,-2,-2,1,
08:06:40.617,1,2,-1,-1,0,0,1,0,
08:06:40.618,3,12,0,0,0,-2,0,3,
08:06:40.629,-2,-10,-2,-1,-2,-2,-3,-3,
08:06:40.629,-2,-7,-1,-1,-1,-2,-1,-2,
08:06:40.638,-2,-9,-3,-2,0,-2,-1,-2,
08:06:40.638,-3,-3,-1,-3,-2,-1,0,-5,
08:06:40.652,-1,5,0,1,1,0,0,-1,
08:06:40.653,0,1,-2,-1,-2,-3,0,0,
08:06:40.659,3,0,0,-1,-1,-1,-2,-2,
08:06:40.659,-3,-1,-2,-2,-2,-1,0,0,
08:06:40.675,0,0,-2,-1,-3,0,0,-2,
08:06:40.676,-1,-1,0,0,-2,0,0,-2,
08:06:40.677,0,0,-1,1,1,-2,0,2,
08:06:40.677,2,-2,-1,-2,0,-3,-1,1,
08:06:40.689,-1,-1,0,-1,-2,-1,-1,-2,
08:06:40.690,-1,0,-2,-1,-1,-1,-1,-1,
08:06:40.698,-2,1,0,1,-1,-1,-1,-3,
08:06:40.699,1,-4,-1,-1,-1,-1,-3,0,
08:06:40.712,-8,-2,0,0,-1,-1,0,-4,
08:06:40.713,0,0,-1,-2,0,0,0,-2,
08:06:40.719,-2,0,-2,-3,-2,-2,-1,-2,
08:06:40.719,1,-2,-1,1,-1,-1,-3,0,
08:06:40.734,2,1,-1,0,-1,0,-2,2,
08:06:40.735,-2,-1,0,-1,-2,0,-2,-2,
08:06:40.743,2,-1,-1,0,-1,0,-2,0,
08:06:40.743,-2,-2,-1,-1,2,-2,0,0,
08:06:40.758,2,0,-2,-1,0,-2,0,-1,
08:06:40.760,-6,-3,-2,-1,-1,-2,-3,-3,
08:06:40.761,0,0,-1,-2,-1,0,0,-1,
08:06:40.761,0,-2,0,-2,0,1,0,-3,
08:06:40.780,-1,0,-2,-1,-1,-1,-1,-2,
08:06:40.781,0,-1,-1,0,-1,0,1,-1,
08:06:40.782,-1,1,-1,1,-2,0,-2,-2,
08:06:40.782,0,0,-1,-1,-1,0,1,2,
08:06:40.795,-3,-2,-2,-2,-1,-1,1,0,
08:06:40.796,0,-1,0,0,0,-2,-1,0,
08:06:40.797,-4,-1,1,-1,-1,-2,-1,-1,
08:06:40.797,4,-2,-1,1,-2,-2,0,-1,
08:06:40.818,-5,0,0,-1,1,1,-1,1,
08:06:40.819,1,0,-2,-1,-1,1,0,1,
08:06:40.820,-5,-3,0,0,0,-3,-1,-2,
08:06:40.821,3,-1,-1,-1,1,0,0,0,
08:06:40.831,4,0,-1,-2,-1,-1,-1,0,
08:06:40.832,-2,-2,0,-2,1,-1,0,0,
08:06:40.840,-1,-1,-2,0,0,0,0,0,
08:06:40.841,-2,-1,-1,0,-2,0,0,-3,
08:06:40.855,1,0,0,-1,-1,-1,-1,1,
08:06:40.856,-4,-1,-1,-1,-1,-1,-2,-2,
08:06:40.857,0,0,-1,0,0,0,1,2,
08:06:40.857,0,-3,-3,-2,-3,-1,-2,-2,
08:06:40.878,-6,-1,-1,1,-1,-2,-2,-4,
08:06:40.878,6,0,0,0,-1,-1,-1,2,
08:06:40.879,-12,-2,0,0,-1,-3,-3,-7,
08:06:40.880,-4,-2,0,-1,-1,-2,-1,-1,
08:06:40.891,1,-1,-1,-2,-2,-2,-1,2,
08:06:40.892,0,-1,-2,-2,-1,-3,0,0,
08:06:40.900,-1,-1,-3,-2,-4,-1,0,0,
08:06:40.901,-1,2,-2,0,-1,-1,-1,0,
08:06:40.915,-1,0,-1,-2,-2,-2,-1,-2,
08:06:40.916,-2,0,-1,-1,0,0,-2,-1,
08:06:40.916,6,0,1,-1,0,0,1,4,
08:06:40.917,-3,0,0,-1,-1,-3,-2,-3,
08:06:40.937,1,-2,-1,-2,-1,-1,0,0,
08:06:40.938,-4,-1,-3,0,-1,-1,-1,-2,
08:06:40.939,-1,-2,0,-2,0,0,1,-1,
08:06:40.940,0,2,-1,-1,-1,-1,-1,0,
08:06:40.951,-8,-3,-1,1,-1,0,-3,-8,
08:06:40.952,0,0,0,0,-3,0,-1,0,
08:06:40.960,2,-1,-1,-1,-3,-1,-1,1,
08:06:40.961,-2,-2,0,-1,-2,-1,0,-2,
08:06:40.975,-1,0,0,-1,-2,-2,-1,1,
08:06:40.976,-2,-1,1,-2,1,-1,0,-3,
08:06:40.977,1,-1,-2,-1,0,-2,-2,-2,
08:06:40.978,2,-1,0,0,-1,-1,-1,1,
08:06:40.997,3,-1,-1,-1,-1,1,1,0,
08:06:40.998,-3,-2,-1,-2,0,0,1,-1,
08:06:40.999,2,-3,-3,0,0,-1,-3,-1,
08:06:41.000,-5,-1,0,-1,-1,-2,-1,-2,
08:06:41.012,8,0,0,-2,-2,-2,0,1,
08:06:41.012,-3,-1,-1,-1,-1,-3,-1,-3,
08:06:41.020,-1,-2,-1,0,-1,-2,-1,0,
08:06:41.021,-1,0,-2,-2,0,1,0,-1,
08:06:41.036,-1,1,-1,0,-2,-1,0,0,
08:06:41.037,3,-1,-1,-1,-3,-2,-1,2,
08:06:41.038,-5,-1,-1,-2,-1,-1,-1,-7,
08:06:41.039,-2,-3,-1,0,0,-1,0,-1,
08:06:41.058,-1,0,-2,0,0,-2,-1,1,
08:06:41.059,-1,-2,0,0,-1,1,0,0,
08:06:41.060,-2,-1,0,-1,-1,0,1,-2,
08:06:41.060,-2,-1,-2,-1,0,-1,0,-3,
08:06:41.072,0,0,0,0,1,-2,-3,-1,
08:06:41.073,-1,-2,-2,0,-2,-3,-3,-2,
08:06:41.081,1,-1,0,-1,-1,-2,-1,1,
08:06:41.082,-6,-3,-2,-2,-2,-3,-3,-4,
08:06:41.096,0,-1,-2,-1,-1,0,-1,-2,
08:06:41.096,0,-1,0,-1,0,-1,0,-2,
08:06:41.097,-2,-1,-2,0,0,0,-1,-2,
08:06:41.099,2,0,-1,0,1,-2,-1,1,
08:06:41.118,-2,-2,-2,-1,0,-1,-1,-2,
08:06:41.119,3,-2,0,-2,-1,0,-2,1,
08:06:41.121,-8,-2,-3,-4,-1,-1,-3,-8,
08:06:41.122,0,1,1,-1,0,0,1,-1,
08:06:41.132,-2,0,-1,-1,0,0,-1,1,
08:06:41.132,-2,-1,-3,1,0,0,-1,-1,
08:06:41.141,1,-1,0,0,-1,0,0,2,
08:06:41.141,1,1,-1,-2,-3,0,-1,1,
08:06:41.156,-3,-1,-1,1,-1,-2,1,-2,
08:06:41.156,6,-1,0,0,-1,-1,0,3,
08:06:41.158,-1,-1,-1,1,-1,-1,-1,1,
08:06:41.159,-3,-2,-2,-1,0,0,-2,-1,
08:06:41.178,0,0,3,-2,0,-1,-1,1,
08:06:41.179,-1,-1,0,-2,0,-1,-1,-3,
08:06:41.180,0,-2,0,0,-1,-4,0,0,
08:06:41.181,-2,1,2,0,-1,0,0,0,
08:06:41.192,1,0,-2,0,0,1,-1,1,
08:06:41.193,-4,-2,-1,-2,-1,1,1,0,
08:06:41.201,1,-2,0,-1,-2,-1,-1,1,
08:06:41.201,-4,-2,1,-2,-2,-2,-2,-3,
08:06:41.216,-2,-1,-2,-2,-3,0,-1,-2,
08:06:41.217,-4,-2,-1,-1,-3,0,-1,-2,
08:06:41.217,0,0,-2,0,-2,0,1,0,
08:06:41.218,0,-1,-1,1,0,-1,1,0,
08:06:41.239,-2,-1,-1,-2,0,0,-2,-1,
08:06:41.239,2,-1,-1,-1,0,-2,-2,0,
08:06:41.240,-10,-2,-1,0,-1,-1,-1,-3,
08:06:41.241,-1,1,0,2,-1,0,1,-3,
08:06:41.252,4,-1,0,-2,-1,-2,0,4,
08:06:41.252,-5,-1,-2,-2,0,0,-3,-2,
08:06:41.261,3,-2,-2,0,1,-2,-2,-1,
08:06:41.261,1,-1,-1,-2,0,0,-1,1,
08:06:41.276,-5,-1,-1,-1,-2,-1,-2,-4,
08:06:41.276,-1,-1,0,0,0,0,2,1,
08:06:41.277,-3,-2,1,-1,-2,0,-1,-1,
08:06:41.278,-1,0,-2,-2,-1,-1,0,-2,
08:06:41.298,1,-1,-1,0,-1,0,-1,0,
08:06:41.299,-3,-2,-1,-1,-2,-2,-2,-3,
08:06:41.300,0,-1,1,-1,-2,0,-1,0,
08:06:41.300,0,-1,-1,-2,-1,0,-1,1,
08:06:41.312,-2,0,-2,-1,2,0,0,-2,
08:06:41.312,-3,-2,-2,-1,0,-2,0,-1,
08:06:41.321,7,1,-1,-1,-2,0,1,3,
08:06:41.322,-5,-2,-1,-1,-2,1,-2,-1,
08:06:41.336,1,0,-1,-2,-1,-2,-1,2,
08:06:41.337,-2,0,-2,0,0,-2,0,-3,
08:06:41.338,4,-1,0,-2,-3,1,-1,0,
08:06:41.338,1,-2,-2,0,1,-1,-1,1,
08:06:41.358,-2,-1,-2,1,-1,-1,-1,-4,
08:06:41.359,-1,-3,1,0,-2,0,1,1,
08:06:41.360,-1,-1,-1,-1,1,-2,-1,-3,
08:06:41.360,-2,-1,-1,-1,0,0,-3,-2,
08:06:41.372,-3,-1,0,-1,0,0,0,-1,
08:06:41.373,0,0,0,0,-3,-1,-1,-1,
08:06:41.381,-4,-1,0,-2,0,2,1,0,
08:06:41.381,6,0,-2,1,-1,0,-2,2,
08:06:41.396,-9,-2,-2,-2,-1,-2,0,-4,
08:06:41.396,-1,-1,-2,-2,0,-1,-1,-2,
08:06:41.397,1,0,-1,0,0,-1,-1,0,
08:06:41.398,1,-1,1,0,-2,-1,1,0,
08:06:41.418,4,-1,-2,-2,0,1,0,2,
08:06:41.419,-4,-2,-1,0,-2,-1,-2,-3,
08:06:41.420,-3,-1,-1,0,-1,-1,-3,0,
08:06:41.420,-1,0,-1,-1,-1,-1,1,-2,
08:06:41.432,2,1,0,0,-1,0,1,-2,
08:06:41.432,-1,0,-1,-1,0,0,0,0,
08:06:41.441,4,-1,-2,-2,1,0,-1,1,
08:06:41.441,-7,-3,-3,-1,-4,-1,-2,-4,
08:06:41.456,2,-1,1,-1,-2,-2,-1,0,
08:06:41.456,2,-3,-2,-1,0,0,0,-1,
08:06:41.458,-2,-2,-1,0,-1,-1,-1,-1,
08:06:41.458,0,0,-2,-2,0,-1,1,1,
08:06:41.478,5,0,-1,0,-1,-2,-2,-2,
08:06:41.479,-4,-3,-1,-1,-1,0,-1,-1,
08:06:41.480,-1,0,-1,0,-1,-2,0,-2,
08:06:41.480,-2,-1,0,-1,-3,-1,-2,-1,
08:06:41.492,-1,0,-3,0,-3,-1,0,-1,
08:06:41.492,2,1,0,-2,-2,-1,0,1,
08:06:41.501,-1,0,-2,-2,-3,-1,1,-2,
08:06:41.501,1,-1,-1,-2,-1,-1,-2,0,
08:06:41.516,-5,-2,-1,0,0,0,-1,1,
08:06:41.516,9,-1,0,1,-1,0,1,2,
08:06:41.517,-7,-2,-1,-1,-1,-2,-2,-1,
08:06:41.518,-3,1,0,0,-2,-1,-1,-2,
08:06:41.538,-2,0,-1,-1,-1,1,-2,-2,
08:06:41.539,0,-1,-2,-1,-2,-3,0,2,
08:06:41.540,3,-1,-2,-2,0,-1,0,0,
08:06:41.540,1,0,-2,-1,-1,0,-1,0,
08:06:41.552,-1,1,1,-1,0,0,-1,0,
08:06:41.552,-3,1,-2,-1,0,-1,-1,-3,
08:06:41.561,-2,0,0,-1,-1,1,-1,-3,
08:06:41.561,-3,-1,0,-2,-1,-1,-1,-1,
08:06:41.576,-2,-2,-1,0,-2,-1,-2,-2,
08:06:41.577,-3,-1,-1,-1,1,-3,-2,-3,
08:06:41.578,-4,-3,-1,0,-2,-2,0,-2,
08:06:41.578,6,0,0,1,-1,-2,-1,2,
08:06:41.598,-9,-2,-3,-1,-1,-1,-1,-6,
08:06:41.599,-3,-3,-2,-1,-3,-1,-2,-3,
08:06:41.600,2,-1,-2,0,-1,1,-1,1,
08:06:41.600,-6,-1,-2,-1,-1,-3,-1,-5,
08:06:41.612,1,-2,-1,-1,-1,-1,-1,0,
08:06:41.612,-2,-1,-1,-2,0,0,-2,-2,
08:06:41.621,-3,-2,-1,-1,-2,0,0,-1,
08:06:41.621,1,0,0,-1,-1,-1,1,0,
08:06:41.635,-1,-1,0,0,-2,-3,-1,-2,
08:06:41.636,-1,-1,-1,-1,-1,-2,-1,-1,
08:06:41.637,3,0,-1,-1,-1,-2,-2,-1,
08:06:41.638,-1,0,0,-1,-1,0,-1,-1,
08:06:41.658,-1,-1,-2,-2,-1,-1,-2,-1,
08:06:41.659,1,-1,-1,-1,-2,-1,-2,-1,
08:06:41.660,0,-1,-1,-1,1,-2,-1,0,
08:06:41.660,0,-1,-1,-1,0,-1,-2,-1,
08:06:41.680,0,1,-1,-1,0,-1,2,0,
08:06:41.681,0,0,-1,0,0,-1,-1,1,
08:06:41.682,6,0,-1,0,-1,0,1,-3,
08:06:41.683,1,0,-1,0,0,-2,-2,1,
08:06:41.695,3,-2,0,0,-3,1,0,0,
08:06:41.696,-3,-3,0,-1,-2,-1,0,-1,
08:06:41.697,0,0,-1,-1,0,-1,0,2,
08:06:41.697,0,-2,0,-2,-1,0,1,0,
08:06:41.718,-1,0,-1,-2,1,-1,0,-3,
08:06:41.719,2,0,0,0,-1,1,2,3,
08:06:41.720,-4,-1,0,-2,-1,-1,0,-2,
08:06:41.721,-3,0,-1,-1,-1,-1,0,-4,
08:06:41.741,-3,-1,0,-3,-1,-3,-1,-1,
08:06:41.741,-2,-2,-3,-2,-1,0,1,-3,
08:06:41.742,-1,0,-2,0,0,0,-2,1,
08:06:41.743,-1,-1,-1,0,1,0,0,1,
08:06:41.755,4,-1,0,0,-1,-1,-2,0,
08:06:41.756,1,1,1,0,0,-1,-1,2,
08:06:41.757,-1,-1,0,-1,-2,-2,0,-1,
08:06:41.758,-1,-1,0,-3,-1,-1,-1,0,
08:06:41.778,-2,-2,-1,0,-2,-1,-1,-1,
08:06:41.779,-2,0,-2,-2,-1,-2,-2,-1,
08:06:41.779,-5,-3,-1,0,0,0,-1,-2,
08:06:41.780,1,0,-1,-1,-1,-2,0,2,
08:06:41.800,1,-2,-2,-2,0,0,0,1,
08:06:41.801,-4,-2,0,0,1,0,0,-2,
08:06:41.802,-1,0,0,-1,0,-1,0,-1,
08:06:41.803,-1,0,-1,0,-1,0,0,0,
08:06:41.815,-2,1,-2,-2,-2,-2,-1,0,
08:06:41.816,0,-2,-1,0,-1,0,0,-2,
08:06:41.817,-12,-3,-2,-1,-1,-1,-3,-6,
08:06:41.818,-2,0,-2,-2,0,0,-1,-2,
08:06:41.837,-2,-1,0,-1,-2,-1,-2,-2,
08:06:41.838,0,-2,0,0,-1,-2,1,1,
08:06:41.845,1,1,0,-2,-2,-2,-1,0,
08:06:41.846,-1,-1,-1,0,-2,-2,0,-3,
08:06:41.860,-2,-3,-1,-1,0,0,-2,-2,
08:06:41.861,-1,0,-2,-1,0,-2,-1,-1,
08:06:41.862,2,0,-1,-2,-1,0,0,-2,
08:06:41.863,-6,-1,-1,0,-1,-2,-4,-3,
08:06:41.875,3,1,0,0,-1,-1,-1,1,
08:06:41.875,-1,-1,-1,-2,-2,-1,-2,-1,
08:06:41.882,0,-2,-2,-1,-1,-1,0,0,
08:06:41.882,1,-1,-1,-2,-1,-1,0,-1,
08:06:41.898,-2,-1,-1,-1,1,-1,0,-1,
08:06:41.898,2,-1,0,1,-1,-1,0,0,
08:06:41.899,1,-1,-1,-1,-1,-1,0,1,
08:06:41.900,0,0,1,-3,0,0,-1,0,
08:06:41.920,-1,-1,-1,-1,-1,-1,1,-1,
08:06:41.921,-7,-1,-4,0,-1,-3,-1,-5,
08:06:41.922,0,0,-1,1,-1,-2,-2,-1,
08:06:41.923,-1,-1,0,-1,-2,-2,1,1,
08:06:41.935,1,0,0,-2,-1,-1,-3,-1,
08:06:41.935,1,-2,0,-1,-1,1,0,-1,
08:06:41.941,0,-1,-1,-1,0,0,-1,0,
08:06:41.942,-2,0,-1,0,-1,-1,0,-1,
08:06:41.958,-2,-2,-1,-1,-1,-1,-1,-2,
08:06:41.959,-1,-1,-1,-2,0,-1,-1,0,
08:06:41.959,-1,-2,-2,-1,-2,-2,-1,0,
08:06:41.960,0,1,0,-1,-1,0,0,0,
08:06:41.980,1,-1,-2,-1,-2,1,-1,1,
08:06:41.981,-1,-4,-2,-1,-2,-1,-2,-5,
08:06:41.982,2,-1,0,0,-1,0,0,1,
08:06:41.983,-2,-1,-2,0,-2,-1,-3,-1,
08:06:41.995,-3,-3,-2,0,1,-1,0,0,
08:06:41.995,2,-1,-1,-2,-1,-2,-1,3,
08:06:42.001,-7,-1,1,-3,1,-2,-2,-6,
08:06:42.002,-1,-2,-2,0,-1,-1,-1,1,
08:06:42.018,0,0,-2,-1,-1,0,1,-2,
08:06:42.018,-1,-2,0,0,-1,0,1,-1,
08:06:42.019,2,-2,-1,-1,-2,-2,-1,2,
08:06:42.020,-2,-1,-2,-1,-1,-1,-2,-2,
08:06:42.040,-4,-3,-1,0,1,-1,-1,-1,
08:06:42.041,-1,-2,-1,-1,-1,0,-1,-1,
08:06:42.042,-2,2,-1,-1,-2,1,-1,-1,
08:06:42.044,-1,-2,0,0,0,-1,1,1,
08:06:42.055,6,-1,-1,0,-3,-3,-2,1,
08:06:42.055,-7,0,-2,-2,0,-1,0,-3,
08:06:42.061,1,-2,-1,-1,-1,-1,-3,0,
08:06:42.062,0,0,-1,-1,-1,-1,-1,1,
08:06:42.078,1,1,0,-1,-1,1,-2,-1,
08:06:42.078,-5,-2,-1,-1,0,-1,-2,-2,
08:06:42.079,1,-2,-2,0,-1,1,-2,1,
08:06:42.080,1,1,-1,-1,-2,-1,0,0,
08:06:42.100,-4,-2,-2,0,0,-2,1,-1,
08:06:42.101,2,0,0,-1,-2,-3,0,0,
08:06:42.102,-2,-1,-1,-1,0,-2,1,-1,
08:06:42.102,0,1,-1,-1,-1,-1,-2,0,
08:06:42.114,-1,0,0,-1,0,-3,-2,-3,
08:06:42.115,-4,-1,-3,1,-2,-1,-2,-1,
08:06:42.121,0,1,-1,-1,-2,0,1,0,
08:06:42.122,-1,-1,-1,0,-1,-1,-1,-1,
08:06:42.138,0,-1,-1,-1,0,-2,1,-1,
08:06:42.138,1,0,0,0,-1,0,0,0,
08:06:42.139,-1,0,-1,-2,-1,-2,-1,0,
08:06:42.140,-2,-1,-2,-1,-1,0,-1,-2,
08:06:42.160,-3,-3,-1,-2,1,-1,-1,-1,
08:06:42.161,-4,0,1,-1,-1,0,-2,-4,
08:06:42.162,-2,-2,-2,1,1,1,0,-3,
08:06:42.162,0,-1,-1,-1,-1,-2,-1,0,
08:06:42.174,-3,-1,-1,0,-2,-2,1,0,
08:06:42.174,1,-2,-1,-1,0,0,-3,1,
08:06:42.183,0,1,0,-1,0,0,-1,0,
08:06:42.183,-2,-2,-2,0,1,0,-1,-3,
08:06:42.198,-2,-1,0,-1,-1,-3,0,-1,
08:06:42.198,0,-2,0,0,0,0,0,-1,
08:06:42.199,7,1,-2,1,-1,-1,0,0,
08:06:42.201,-1,0,-1,-2,0,0,-2,-3,
08:06:42.220,-1,-1,-2,-3,-4,-1,0,-1,
08:06:42.221,-1,-2,-2,-1,0,-1,0,-1,
08:06:42.223,-1,-1,-1,-1,0,-1,-2,0,
08:06:42.224,0,-2,-1,-1,-1,-1,0,1,
08:06:42.234,0,0,-1,-2,-1,1,0,-2,
08:06:42.234,0,-2,-2,-1,-2,-2,-1,0,
08:06:42.243,-4,-1,-1,-1,-1,-1,0,-3,
08:06:42.244,-1,1,0,-3,0,-2,-1,-2,
08:06:42.258,-3,0,0,0,-1,0,-2,0,
08:06:42.258,1,-1,-1,-2,-2,-2,-2,0,
08:06:42.261,-3,-1,-2,-2,-2,1,-1,-1,
08:06:42.262,-1,1,-2,0,-2,-1,0,-1,
08:06:42.280,-1,1,0,-1,-2,0,0,-1,
08:06:42.309,9,0,-1,0,0,0,1,2,
08:06:42.309,-2,-1,0,-1,-2,-1,0,-1,
08:06:42.310,-3,-1,-1,-1,-2,0,-3,-4,
08:06:42.311,-2,-2,-2,0,0,-1,-1,-2,
08:06:42.311,0,-1,0,0,0,1,-1,0,
08:06:42.311,-1,-2,0,0,0,0,1,1,
08:06:42.312,0,0,-3,-2,-1,0,-1,-1,
08:06:42.318,0,-1,0,0,-1,0,-1,-1,
08:06:42.318,-4,-2,-1,-1,-1,-1,1,-3,
08:06:42.319,2,1,-2,0,-2,0,-2,1,
08:06:42.320,-3,-1,0,-2,-1,-1,0,-3,
08:06:42.340,2,-1,-2,1,-2,-3,0,2,
08:06:42.341,8,-1,-2,-1,-1,1,1,2,
08:06:42.343,-9,-1,-2,-1,1,-2,-2,-7,
08:06:42.343,0,-1,-1,0,-1,0,1,1,
08:06:42.354,-1,-1,-1,-2,-2,-2,1,-1,
08:06:42.355,0,-2,-2,2,0,-3,-1,1,
08:06:42.363,0,1,2,0,0,-1,0,-2,
08:06:42.364,-1,-1,-2,-1,0,-1,-2,-2,
08:06:42.377,-1,-2,-2,0,0,0,-1,-2,
08:06:42.378,-6,-1,-1,-2,-1,-2,0,-3,
08:06:42.379,-1,0,-2,-1,-1,-1,1,1,
08:06:42.380,-3,-2,-2,-2,-1,-1,0,-2,
08:06:42.400,0,0,-2,1,-1,-1,-1,-2,
08:06:42.401,-2,-2,-1,-2,-2,-2,-4,-1,
08:06:42.402,-3,-2,-3,-1,-3,-1,-1,-4,
08:06:42.403,2,-1,0,0,1,-1,-2,1,
08:06:42.414,-1,0,-4,-2,-2,1,0,-1,
08:06:42.415,-4,-1,0,-4,-1,1,-1,-3,
08:06:42.422,8,0,0,-1,-1,-1,-1,-1,
08:06:42.423,-2,0,-1,0,-1,-1,-1,0,
08:06:42.437,-1,-2,-1,-1,-1,-2,-2,-2,
08:06:42.438,0,-1,-1,1,-1,-1,-1,0,
08:06:42.439,0,1,0,0,-1,-1,-1,0,
08:06:42.440,0,-1,-2,1,0,-1,-1,-2,
08:06:42.460,-2,-2,0,-1,0,0,-1,1,
08:06:42.461,1,1,-1,1,-2,0,0,-2,
08:06:42.462,-1,-2,0,-1,0,-2,0,0,
08:06:42.462,-1,-1,1,-1,-2,-2,1,-1,
08:06:42.474,-1,0,1,-2,-1,-3,-2,-2,
08:06:42.475,-3,-2,1,-1,-2,-2,0,-2,
08:06:42.482,-1,1,-1,-1,-1,-1,-1,2,
08:06:42.483,1,0,-1,-2,-1,0,-1,-3,
08:06:42.498,-5,-3,-1,1,-1,-1,-2,-3,
08:06:42.498,-4,-2,0,-1,0,-1,-1,-1,
08:06:42.499,-3,-1,-2,0,-1,0,-1,0,
08:06:42.500,5,0,-3,-2,0,0,-2,2,
08:06:42.520,-8,-4,-2,-2,-1,-1,-2,-3,
08:06:42.521,0,1,-1,-1,-1,1,-1,-2,
08:06:42.523,-2,-1,-2,2,-2,-1,-1,0,
08:06:42.525,-1,-1,-2,0,-2,-1,-2,2,
08:06:42.535,2,-2,-1,-1,0,1,-1,0,
08:06:42.535,-1,-1,-1,-1,1,-2,-1,0,
08:06:42.544,-2,-1,-2,-1,-2,0,-2,-1,
08:06:42.544,-2,0,-2,-1,-2,-1,-1,-1,
08:06:42.558,1,-1,-1,-1,-2,1,0,0,
08:06:42.559,-1,2,-1,0,0,-2,-2,-1,
08:06:42.560,1,-2,0,-2,-2,0,-2,-1,
08:06:42.561,-2,-1,1,-1,0,-3,-2,-1,
08:06:42.581,0,-1,0,-2,-1,-2,-1,1,
08:06:42.581,1,-2,-2,-1,0,0,1,1,
08:06:42.582,-5,-2,-1,-2,-1,-3,0,-3,
08:06:42.583,5,0,-2,-1,-2,0,-1,-2,
08:06:42.594,-7,-1,0,0,-1,-1,-1,-3,
08:06:42.595,-1,-2,-1,-1,-2,-2,-2,0,
08:06:42.603,0,-1,0,-2,1,-1,0,-1,
08:06:42.605,-2,-2,1,-2,-2,-1,-1,0,
08:06:42.618,2,0,0,0,0,0,0,-1,
08:06:42.619,-1,-2,0,1,-2,-2,-1,-1,
08:06:42.621,-1,-2,-1,-1,-2,-1,-2,-2,
08:06:42.621,-3,-2,-2,0,-1,-1,-1,-1,
08:06:42.641,2,-3,0,-1,0,0,-1,0,
08:06:42.641,-3,-2,-3,0,-1,-1,-1,-2,
08:06:42.642,2,1,0,1,-2,1,-1,0,
08:06:42.643,-2,0,-1,-1,-2,1,0,-2,
08:06:42.663,4,-2,-1,-1,-1,0,-2,0,
08:06:42.664,-2,1,-1,-1,-3,-2,0,0,
08:06:42.665,6,0,0,0,0,-3,-1,1,
08:06:42.666,-4,-1,-1,1,-1,0,1,-1,
08:06:42.678,0,0,-1,0,-2,1,0,2,
08:06:42.679,-2,-1,-2,-2,-1,-1,-1,-4,
08:06:42.680,1,1,-2,0,-2,0,-2,0,
08:06:42.681,-1,-3,-1,-1,-2,-1,0,-1,
08:06:42.701,-1,0,-1,-2,0,-1,-2,-2,
08:06:42.701,1,-1,0,0,-2,0,-1,-1,
08:06:42.702,-5,0,-1,-3,0,0,0,-1,
08:06:42.703,-1,-2,0,-1,-1,-1,-1,-1,
08:06:42.723,-1,0,0,-2,1,-2,0,2,
08:06:42.724,1,-1,-2,-1,0,1,0,0,
08:06:42.725,-1,0,-1,-1,0,-2,-2,-2,
08:06:42.726,-1,-1,-1,1,0,0,-2,-2,
08:06:42.738,0,0,-2,1,-3,-2,0,0,
08:06:42.738,1,0,1,-1,-2,-1,0,0,
08:06:42.744,-2,-2,-2,0,-1,0,-2,-5,
08:06:42.745,1,-1,-1,-2,0,-2,1,1,
08:06:42.761,0,-1,-2,-2,-2,-2,0,-1,
08:06:42.762,-3,-1,-2,-2,1,1,-1,-1,
08:06:42.764,-1,-2,-1,-1,-1,-1,0,1,
08:06:42.764,0,0,-1,-1,-2,-1,-4,-1,
08:06:42.783,0,-1,-1,-1,-2,-2,0,1,
08:06:42.784,0,-1,0,-1,0,-2,-1,-2,
08:06:42.785,-1,0,-2,-2,0,-1,-1,0,
08:06:42.785,-2,-1,-1,0,0,-1,0,-2,
08:06:42.798,0,-1,0,-2,-1,-1,1,0,
08:06:42.798,-3,-2,-1,-1,-2,0,-2,1,
08:06:42.804,-3,-1,-1,-2,0,0,1,0,
08:06:42.805,-2,-2,-1,1,-2,-2,-3,-2,
08:06:42.821,0,-1,-1,1,-2,0,0,-1,
08:06:42.821,0,-3,-2,-2,0,-1,-1,-2,
08:06:42.822,-3,0,-1,0,-2,-2,-1,-2,
08:06:42.823,5,-1,1,-1,0,-1,1,2,
08:06:42.843,-7,-2,-3,-4,1,-1,-2,-5,
08:06:42.844,0,0,0,0,0,-1,-1,-1,
08:06:42.846,-1,0,0,-1,-2,-2,0,0,
08:06:42.847,-4,-2,1,-2,-2,2,0,1,
08:06:42.858,1,-3,-2,1,-1,-2,-2,-1,
08:06:42.858,-2,-1,0,0,-1,-1,-1,-2,
08:06:42.864,-1,-1,-1,-1,1,-1,-2,1,
08:06:42.865,-1,0,-1,-1,-2,-1,0,-2,
08:06:42.881,-1,-2,-2,1,1,0,-2,-2,
08:06:42.881,-1,-1,-1,0,-1,-1,-1,-3,
08:06:42.882,0,0,0,-2,-3,0,-1,-1,
08:06:42.883,-2,0,-2,2,-2,-1,0,1,
08:06:42.903,-3,-1,0,0,-2,0,-2,-1,
08:06:42.904,-1,-2,-1,-1,-1,-2,0,1,
08:06:42.905,-1,-1,0,-1,-2,-1,0,-1,
08:06:42.905,-2,-2,0,-1,-2,-1,-1,-1,
08:06:42.917,2,-2,-1,-1,-1,-1,-3,0,
08:06:42.918,-4,0,0,-2,-2,0,-1,-4,
08:06:42.924,-1,1,-2,-2,-1,0,0,-1,
08:06:42.926,4,-1,-1,-3,0,-2,-1,-1,
08:06:42.941,-11,-2,-2,-2,-2,0,0,-4,
08:06:42.941,1,-1,0,0,1,0,-1,-1,
08:06:42.942,0,-3,-1,1,-2,0,-2,-1,
08:06:42.943,-3,1,-2,-2,0,0,0,-1,
08:06:42.963,3,0,-1,-1,0,-2,-1,-1,
08:06:42.964,-2,-4,-2,-2,-3,-2,-1,-1,
08:06:42.965,-2,0,-2,0,0,0,-1,-1,
08:06:42.965,0,-1,-2,0,-2,-2,-3,0,
08:06:42.977,-2,-1,0,0,-1,-1,0,-2,
08:06:42.978,-2,-2,-1,-1,-1,0,-1,0,
08:06:42.984,1,1,1,-1,-1,-2,0,-1,
08:06:42.985,-2,-2,-1,0,-1,0,-1,-3,
08:06:43.001,1,1,-1,0,-1,-1,1,2,
08:06:43.001,-5,-2,-1,-1,-1,-2,-1,-3,
08:06:43.003,0,-1,0,-1,1,-1,-2,-1,
08:06:43.004,-1,0,-2,-2,0,-1,-1,-1,
08:06:43.023,0,-2,-1,0,-1,-1,0,-1,
08:06:43.024,2,0,-1,0,-1,0,0,0,
08:06:43.025,-1,0,0,-1,-1,0,-1,-3,
08:06:43.025,-2,-2,-2,-1,-1,-2,0,-1,
08:06:43.037,2,-1,1,-1,-1,0,-2,-1,
08:06:43.038,0,-1,-1,1,1,-1,-2,-4,
08:06:43.044,-3,0,-1,0,0,-1,-1,-1,
08:06:43.045,0,0,0,0,-1,0,-1,1,
08:06:43.061,2,0,-1,0,-1,-1,0,1,
08:06:43.061,-6,-3,-2,-2,-2,-1,-1,-3,
08:06:43.062,-1,0,-1,-1,0,-1,-1,-1,
08:06:43.063,0,-1,0,0,0,-2,-1,0,
08:06:43.083,-3,0,-1,0,-2,0,0,-1,
08:06:43.084,0,2,-1,-1,-1,-1,-1,2,
08:06:43.085,2,-2,-1,0,-1,-1,-1,0,
08:06:43.085,-5,0,0,-1,0,0,1,-1,
08:06:43.097,0,-4,-1,-1,-2,0,-1,-1,
08:06:43.098,1,-1,-2,0,-1,0,1,1,
08:06:43.104,-1,-1,-3,0,-1,-3,-3,-2,
08:06:43.105,1,-1,-2,0,-1,-1,-2,1,
08:06:43.121,-2,-1,0,1,0,-1,-1,0,
08:06:43.121,2,-1,0,1,-2,0,0,2,
08:06:43.122,-2,-3,0,-3,-2,-1,2,-1,
08:06:43.123,-2,0,0,-1,-2,-2,-2,-2,
08:06:43.143,0,-2,-2,-2,0,-2,-2,1,
08:06:43.144,-1,2,-2,-2,-1,-1,-2,-3,
08:06:43.145,-1,-1,0,1,0,1,-1,-3,
08:06:43.145,-1,-1,-2,0,0,-2,-2,-3,
08:06:43.157,-1,-2,1,0,-1,-1,-1,0,
08:06:43.158,-1,1,-2,-1,-1,-1,1,0,
08:06:43.166,-3,-1,-1,0,-2,-1,-3,-1,
08:06:43.166,7,-1,-2,-2,-3,-1,0,2,
08:06:43.180,-11,-3,-1,0,-1,0,-2,-6,
08:06:43.181,1,-1,-1,0,0,0,-2,1,
08:06:43.182,-2,0,-2,-2,-1,-1,2,1,
08:06:43.183,-1,-1,-2,-1,-1,1,1,-1,
08:06:43.203,3,-1,0,-1,-2,0,-1,0,
08:06:43.204,-1,-2,-1,0,-1,-3,0,-2,
08:06:43.205,-1,-3,-2,-1,0,0,-1,0,
08:06:43.205,-2,-3,0,0,0,0,-2,-3,
08:06:43.225,0,-2,-1,-2,0,0,1,1,
08:06:43.226,-2,0,0,-2,0,0,0,0,
08:06:43.226,0,0,-2,0,-2,0,0,1,
08:06:43.227,-3,-2,-1,-2,-1,-1,0,-3,
08:06:43.240,1,-1,-2,-1,-1,0,-1,-1,
08:06:43.241,1,-1,-2,1,0,-1,-1,1,
08:06:43.242,-2,-1,0,-1,-1,-2,-1,-1,
08:06:43.242,-4,0,-1,-1,-1,-2,0,-2,
08:06:43.262,-1,-2,0,-2,-1,-2,1,-1,
08:06:43.263,0,-1,-2,-1,-1,0,-1,1,
08:06:43.264,2,1,-1,-2,0,0,0,0,
08:06:43.264,-8,-2,-2,-1,-1,-1,-2,-7,
08:06:43.285,2,1,-2,-1,0,-3,-1,2,
08:06:43.286,0,-2,0,-1,0,0,-2,-1,
08:06:43.286,-1,0,0,0,-1,1,1,1,
08:06:43.287,1,-1,0,-1,0,0,-3,3,
08:06:43.300,-1,0,-2,-2,0,0,0,-1,
08:06:43.300,-3,0,-1,0,-1,-2,-1,-2,
08:06:43.301,3,-2,-1,-2,0,0,-1,0,
08:06:43.302,-11,-2,-1,-1,-1,1,-2,-3,
08:06:43.322,0,-1,-1,-1,-1,-1,-3,1,
08:06:43.323,-1,2,-1,-2,0,0,0,-1,
08:06:43.323,-2,-2,-1,0,0,-2,1,-1,
08:06:43.324,2,0,1,-2,1,-1,1,1,
08:06:43.345,0,-1,0,1,1,0,-3,-3,
08:06:43.346,-2,-2,-1,0,-2,-1,-1,-1,
08:06:43.346,-1,0,-2,-1,-2,0,-2,0,
08:06:43.347,2,-2,-2,0,-1,0,-1,-2,
08:06:43.360,-1,-2,1,0,-1,-1,-1,-3,
08:06:43.360,1,-2,1,1,-1,0,0,1,
08:06:43.361,-4,-1,-1,0,-1,-1,-1,-2,
08:06:43.361,1,0,-2,-1,0,0,2,2,
08:06:43.382,-2,0,-1,0,-2,-1,0,-2,
08:06:43.383,0,-1,-1,-2,0,1,0,-1,
08:06:43.384,-2,0,-2,-1,-2,-1,-3,-2,
08:06:43.384,1,-2,0,-1,-2,0,-1,0,
08:06:43.405,-1,-3,0,-1,-1,0,-1,-1,
08:06:43.406,0,1,-1,-1,-2,-2,-2,0,
08:06:43.407,-1,-1,-1,-1,-1,0,-2,-2,
08:06:43.407,3,-1,-1,-1,-1,-1,-1,1,
08:06:43.420,0,-2,-1,-1,-1,-2,0,1,
08:06:43.420,-2,-2,-1,-2,-1,-1,-1,-4,
08:06:43.421,0,0,-1,-1,0,0,-2,-1,
08:06:43.422,1,1,-1,-1,-1,-1,-1,-2,
08:06:43.442,-1,-3,-1,-1,0,0,-1,-1,
08:06:43.443,-2,-2,0,-2,-2,-1,-2,-2,
08:06:43.443,-2,0,-1,0,-2,0,1,0,
08:06:43.444,-1,-1,-3,-2,-1,0,-1,0,
08:06:43.465,-1,0,-1,-3,-2,-2,0,-1,
08:06:43.466,0,-1,-2,-2,-3,-2,-2,-2,
08:06:43.467,-2,-2,-7,-6,-4,-3,-2,-1,
08:06:43.467,-1,3,-3,-18,-6,-3,-3,-2,
08:06:43.488,1,-8,10,25,7,6,2,2,
08:06:43.488,1,1,2,11,6,3,0,0,
08:06:43.489,0,5,3,4,6,2,-1,-2,
08:06:43.490,-3,-3,-9,-5,-7,-7,-4,0,
08:06:43.502,-7,-21,-24,-41,-23,-13,-5,-4,
08:06:43.503,-1,8,8,-17,-14,-2,0,-2,
08:06:43.510,6,4,13,51,33,13,4,5,
08:06:43.510,-2,9,11,16,23,7,2,0,
08:06:43.525,-1,5,-4,3,1,-5,-4,-2,
08:06:43.525,-3,-7,-10,-22,-29,-8,-1,-2,
08:06:43.526,-2,-1,7,-21,-9,-1,0,-3,
08:06:43.526,2,-4,7,34,27,5,1,0,
08:06:43.541,-9,-18,-22,-15,-9,-8,-9,-5,
08:06:43.542,2,-1,-13,-5,4,4,4,1,
08:06:43.542,0,2,11,2,-3,-2,-1,2,
08:06:43.543,-5,-4,-3,-17,-12,-1,2,-5,
08:06:43.562,2,9,4,17,2,-5,-6,-1,
08:06:43.563,-8,-10,-13,-12,-6,-20,-10,-5,
08:06:43.563,-9,-7,-17,-80,-65,-13,-5,-11,
08:06:43.564,12,14,3,40,27,21,14,8,
08:06:43.585,5,10,40,82,66,9,-4,2,
08:06:43.593,6,4,13,33,13,8,7,7,
08:06:43.593,-9,-14,-12,5,-1,-16,-12,-8,
08:06:43.594,-13,-16,-23,-63,-63,-33,-11,-8,
08:06:43.600,-5,3,-6,-57,-44,7,7,-2,
08:06:43.600,1,0,-5,24,42,18,-1,2,
08:06:43.601,5,2,18,51,59,11,8,7,
08:06:43.601,6,3,12,-13,-28,-3,0,6,
08:06:43.622,1,6,9,31,27,21,18,2,
08:06:43.623,-2,-4,-7,-32,-27,-28,-21,-8,
08:06:43.623,7,5,-2,6,-6,8,4,6,
08:06:43.624,1,-10,-29,-12,-3,-20,-2,3,
08:06:43.645,2,2,31,-2,10,20,13,3,
08:06:43.645,-4,-4,-3,-14,-3,15,11,-3,
08:06:43.646,3,6,4,19,28,15,2,1,
08:06:43.646,0,-3,-9,16,-2,-7,-11,-5,
08:06:43.659,6,8,7,16,-7,-17,-13,0,
08:06:43.661,-14,-24,-54,-38,-32,-29,-12,-8,
08:06:43.662,-10,-12,-13,-34,-28,-18,0,-7,
08:06:43.662,-6,8,34,-24,-15,7,-2,-8,
08:06:43.682,7,12,0,-7,-5,1,-8,0,
08:06:43.683,8,13,38,69,69,22,7,7,
08:06:43.683,-6,-11,-27,15,9,1,-4,-7,
08:06:43.684,-3,-5,6,6,2,-9,1,3,
08:06:43.704,-13,-8,-24,-29,-39,5,-4,-14,
08:06:43.705,-1,4,9,-29,-26,10,3,0,
08:06:43.706,6,4,-2,-9,8,-5,0,2,
08:06:43.706,2,8,10,56,40,-11,-4,0,
08:06:43.719,8,10,44,23,26,21,8,9,
08:06:43.720,-11,-12,-8,23,-18,-10,-3,-9,
08:06:43.720,-5,-7,-10,-21,-21,-34,-10,-4,
08:06:43.721,4,12,1,-41,-31,-12,-12,-2,
08:06:43.742,1,-10,-33,-19,4,22,25,8,
08:06:43.743,-1,-1,-19,13,25,0,-6,2,
08:06:43.743,-2,-1,3,-9,-9,19,2,2,
08:06:43.744,5,2,-7,28,26,-15,1,5,
08:06:43.765,5,20,48,-6,-40,-23,-1,1,
08:06:43.766,-15,-39,-64,-31,-4,9,15,-2,
08:06:43.766,-2,6,9,19,15,5,-19,-8,
08:06:43.767,-6,-1,-5,-44,-52,-47,-41,-11,
08:06:43.779,3,3,-18,6,21,-12,14,1,
08:06:43.780,12,24,39,-8,-17,34,-6,2,
08:06:43.780,-5,-19,-20,10,12,7,27,1,
08:06:43.781,-1,-9,-2,13,20,15,-4,-4,
08:06:43.802,-5,-9,7,-8,-4,-19,0,-3,
08:06:43.802,-3,-7,-25,13,-1,-27,-13,-6,
08:06:43.803,8,14,42,-25,-28,21,24,8,
08:06:43.804,-4,-15,-20,-5,1,26,14,-3,
08:06:43.824,-9,-12,-23,-2,-1,-33,-31,-11,
08:06:43.825,14,20,36,16,-2,-4,15,9,
08:06:43.826,9,14,5,-24,-4,24,5,8,
08:06:43.826,4,-1,-7,27,59,55,34,5,
08:06:43.839,-2,-9,-11,27,25,-3,-15,1,
08:06:43.840,-13,-9,-1,-13,-20,-25,-28,-19,
